[Header]
Application Name	LCsolution
Version	1.25
Data File Name	D:\1F-FSEC\140725ayase_166_50_18.lcd
Output Date	2014/07/28
Output Time	11:34:39

[File Information]
Type	Data File
Generated	2014/07/26 7:47:55
Generated by	System Administrator
Modified	2014/07/26 7:59:27
Modified by	System Administrator

[Sample Information]
Operator Name	System Administrator
Acquired	2014/07/26 7:48:21
Sample Type	0:Unknown
Level	0
Sample Name	166_50
Sample ID	
ISTD Amount 1	1
ISTD Amount 2	1
ISTD Amount 3	1
ISTD Amount 4	1
ISTD Amount 5	1
ISTD Amount 6	1
ISTD Amount 7	1
ISTD Amount 8	1
ISTD Amount 9	1
ISTD Amount 10	1
ISTD Amount 11	1
ISTD Amount 12	1
ISTD Amount 13	1
ISTD Amount 14	1
ISTD Amount 15	1
ISTD Amount 16	1
ISTD Amount 17	1
ISTD Amount 18	1
ISTD Amount 19	1
ISTD Amount 20	1
ISTD Amount 21	1
ISTD Amount 22	1
ISTD Amount 23	1
ISTD Amount 24	1
ISTD Amount 25	1
ISTD Amount 26	1
ISTD Amount 27	1
ISTD Amount 28	1
ISTD Amount 29	1
ISTD Amount 30	1
ISTD Amount 31	1
ISTD Amount 32	1
Sample Amount	1
Dilution Factor	1
Vial#	2
Injection Volume	50

[Original Files]
Data File	D:\1F-FSEC\140725ayase_166_50_18.lcd
Method File	D:\1F-FSEC\2-B-P3NTA_miniINC_0.36_11m.lcm
Batch File	D:\1F-FSEC\140725ayase.lcb
Report Format File	C:\LabSolutions\LCsolution\System\Default.lcr
Tuning File	

[File Description]


[Configuration]
# of Detectors	2
Detector ID	Detector A	Detector B
Detector Name	åüèoäÌA	åüèoäÌB
# of Channels	1	1

[Peak Table(Detector A-Ch1)]
# of Peaks	6
Peak#	R.Time	I.Time	F.Time	Area	Height	A/H	Conc.	Mark	ID#	Name	k'	Plate #	Plate Ht.	Tailing	Resolution	Sep.Factor	Conc. %	Norm Conc.
1	0.035	0.017	0.325	2141	309	6.9360	0.0000	   			0.000	0	350158.201	6.950	0.000	0.000	0.0000	0.0000
2	1.441	0.750	2.675	713141	18025	39.5630	0.0000	   			40.185	30	4953.703	1.229	2.229	0.000	0.0000	0.0000
3	4.399	3.200	5.508	8438542	130087	64.8680	0.0000	   			124.758	105	1423.076	0.000	2.143	3.105	0.0000	0.0000
4	7.498	5.508	7.717	18035542	249338	72.3340	0.0000	 V 			213.322	117	1284.580	0.000	1.380	1.710	0.0000	0.0000
5	8.151	7.717	8.692	21194971	585324	36.2110	0.0000	 V 			232.000	1082	138.627	0.000	0.347	1.088	0.0000	0.0000
6	9.453	8.692	10.967	57935403	1033102	56.0790	0.0000	 V 			269.225	701	213.871	0.000	1.077	1.160	0.0000	0.0000

[Peak Table(Detector B-Ch1)]
# of Peaks	3
Peak#	R.Time	I.Time	F.Time	Area	Height	A/H	Conc.	Mark	ID#	Name	k'	Plate #	Plate Ht.	Tailing	Resolution	Sep.Factor	Conc. %	Norm Conc.
1	0.036	0.017	0.700	35256	2306	15.2880	0.0000	   			0.000	0	1095587.647	15.327	0.000	0.000	0.0000	0.0000
2	4.756	3.500	6.708	28992748	546685	53.0340	0.0000	   			132.647	270	555.540	0.000	6.121	0.000	0.0000	0.0000
3	7.824	6.708	10.967	140627962	2177714	64.5760	0.0000	 V 			218.885	548	273.692	2.054	2.460	1.650	0.0000	0.0000

[Peak Table(PDA-Ch1)]
# of Peaks	0

[Compound Results(Detector A)]
# of IDs	0

[Compound Results(Detector B)]
# of IDs	0

[Compound Results(PDA)]
# of IDs	0

[Group Results(Detector A)]
# of Groups	0

[Group Results(Detector B)]
# of Groups	0

[Group Results(PDA)]
# of Groups	0

[LC Chromatogram(Detector A-Ch1)]
Interval(msec)	500
# of Points	1321
Start Time(min)	0.000
End Time(min)	11.000
Intensity Units	mV
Intensity Multiplier	0.001
Wavelength(nm)	280
R.Time (min)	Intensity
0.00000	-1918
0.00833	-1918
0.01667	-259
0.02500	-85
0.03333	-68
0.04167	-54
0.05000	-109
0.05833	-166
0.06667	-225
0.07500	-284
0.08333	-344
0.09167	-405
0.10000	-467
0.10833	-530
0.11667	-595
0.12500	-661
0.13333	-725
0.14167	-789
0.15000	-853
0.15833	-918
0.16667	-982
0.17500	-1044
0.18333	-1102
0.19167	-1161
0.20000	-1219
0.20833	-1277
0.21667	-1336
0.22500	-1393
0.23333	-1447
0.24167	-1501
0.25000	-1555
0.25833	-1608
0.26667	-1658
0.27500	-1707
0.28333	-1757
0.29167	-1807
0.30000	-1856
0.30833	-1905
0.31667	-1953
0.32500	-2001
0.33333	-2047
0.34167	-2091
0.35000	-2134
0.35833	-2177
0.36667	-2218
0.37500	-2257
0.38333	-2295
0.39167	-2335
0.40000	-2373
0.40833	-2409
0.41667	-2442
0.42500	-2476
0.43333	-2511
0.44167	-2547
0.45000	-2583
0.45833	-2617
0.46667	-2650
0.47500	-2684
0.48333	-2716
0.49167	-2749
0.50000	-2782
0.50833	-2813
0.51667	-2844
0.52500	-2874
0.53333	-2904
0.54167	-2934
0.55000	-2964
0.55833	-2996
0.56667	-3025
0.57500	-3054
0.58333	-3081
0.59167	-3108
0.60000	-3136
0.60833	-3162
0.61667	-3186
0.62500	-3208
0.63333	-3229
0.64167	-3250
0.65000	-3269
0.65833	-3288
0.66667	-3307
0.67500	-3325
0.68333	-3342
0.69167	-3355
0.70000	-3366
0.70833	-3376
0.71667	-3385
0.72500	-3394
0.73333	-3401
0.74167	-3405
0.75000	-3405
0.75833	-3403
0.76667	-3397
0.77500	-3388
0.78333	-3378
0.79167	-3365
0.80000	-3347
0.80833	-3325
0.81667	-3299
0.82500	-3269
0.83333	-3233
0.84167	-3195
0.85000	-3150
0.85833	-3099
0.86667	-3044
0.87500	-2983
0.88333	-2914
0.89167	-2841
0.90000	-2761
0.90833	-2674
0.91667	-2577
0.92500	-2472
0.93333	-2358
0.94167	-2236
0.95000	-2103
0.95833	-1963
0.96667	-1813
0.97500	-1652
0.98333	-1483
0.99167	-1301
1.00000	-1108
1.00833	-906
1.01667	-692
1.02500	-467
1.03333	-233
1.04167	12
1.05000	269
1.05833	539
1.06667	819
1.07500	1110
1.08333	1410
1.09167	1720
1.10000	2042
1.10833	2372
1.11667	2710
1.12500	3058
1.13333	3413
1.14167	3774
1.15000	4141
1.15833	4514
1.16667	4890
1.17500	5272
1.18333	5657
1.19167	6044
1.20000	6431
1.20833	6817
1.21667	7203
1.22500	7586
1.23333	7964
1.24167	8338
1.25000	8709
1.25833	9073
1.26667	9427
1.27500	9774
1.28333	10112
1.29167	10439
1.30000	10753
1.30833	11053
1.31667	11341
1.32500	11617
1.33333	11876
1.34167	12117
1.35000	12340
1.35833	12547
1.36667	12737
1.37500	12908
1.38333	13062
1.39167	13197
1.40000	13313
1.40833	13410
1.41667	13488
1.42500	13547
1.43333	13583
1.44167	13600
1.45000	13598
1.45833	13577
1.46667	13539
1.47500	13482
1.48333	13406
1.49167	13311
1.50000	13199
1.50833	13071
1.51667	12928
1.52500	12770
1.53333	12599
1.54167	12412
1.55000	12210
1.55833	11996
1.56667	11770
1.57500	11532
1.58333	11284
1.59167	11027
1.60000	10760
1.60833	10484
1.61667	10203
1.62500	9916
1.63333	9624
1.64167	9324
1.65000	9020
1.65833	8713
1.66667	8402
1.67500	8088
1.68333	7772
1.69167	7455
1.70000	7137
1.70833	6818
1.71667	6500
1.72500	6186
1.73333	5873
1.74167	5562
1.75000	5251
1.75833	4942
1.76667	4637
1.77500	4336
1.78333	4039
1.79167	3747
1.80000	3457
1.80833	3173
1.81667	2894
1.82500	2619
1.83333	2348
1.84167	2082
1.85000	1823
1.85833	1570
1.86667	1323
1.87500	1082
1.88333	844
1.89167	610
1.90000	383
1.90833	164
1.91667	-51
1.92500	-258
1.93333	-461
1.94167	-658
1.95000	-850
1.95833	-1035
1.96667	-1214
1.97500	-1388
1.98333	-1556
1.99167	-1722
2.00000	-1884
2.00833	-2043
2.01667	-2194
2.02500	-2340
2.03333	-2480
2.04167	-2615
2.05000	-2746
2.05833	-2874
2.06667	-2998
2.07500	-3118
2.08333	-3233
2.09167	-3345
2.10000	-3453
2.10833	-3558
2.11667	-3659
2.12500	-3757
2.13333	-3851
2.14167	-3940
2.15000	-4025
2.15833	-4108
2.16667	-4188
2.17500	-4266
2.18333	-4341
2.19167	-4414
2.20000	-4486
2.20833	-4555
2.21667	-4621
2.22500	-4685
2.23333	-4746
2.24167	-4806
2.25000	-4864
2.25833	-4920
2.26667	-4973
2.27500	-5023
2.28333	-5074
2.29167	-5122
2.30000	-5167
2.30833	-5212
2.31667	-5258
2.32500	-5301
2.33333	-5342
2.34167	-5381
2.35000	-5417
2.35833	-5452
2.36667	-5486
2.37500	-5518
2.38333	-5551
2.39167	-5583
2.40000	-5613
2.40833	-5644
2.41667	-5670
2.42500	-5696
2.43333	-5723
2.44167	-5749
2.45000	-5775
2.45833	-5800
2.46667	-5824
2.47500	-5847
2.48333	-5868
2.49167	-5889
2.50000	-5911
2.50833	-5933
2.51667	-5953
2.52500	-5972
2.53333	-5991
2.54167	-6009
2.55000	-6027
2.55833	-6046
2.56667	-6064
2.57500	-6080
2.58333	-6095
2.59167	-6109
2.60000	-6124
2.60833	-6139
2.61667	-6155
2.62500	-6171
2.63333	-6184
2.64167	-6196
2.65000	-6208
2.65833	-6221
2.66667	-6236
2.67500	-6249
2.68333	-6260
2.69167	-6269
2.70000	-6279
2.70833	-6290
2.71667	-6301
2.72500	-6311
2.73333	-6324
2.74167	-6333
2.75000	-6342
2.75833	-6350
2.76667	-6358
2.77500	-6366
2.78333	-6375
2.79167	-6384
2.80000	-6392
2.80833	-6399
2.81667	-6407
2.82500	-6414
2.83333	-6421
2.84167	-6428
2.85000	-6435
2.85833	-6439
2.86667	-6445
2.87500	-6450
2.88333	-6456
2.89167	-6463
2.90000	-6469
2.90833	-6475
2.91667	-6482
2.92500	-6488
2.93333	-6492
2.94167	-6498
2.95000	-6505
2.95833	-6514
2.96667	-6520
2.97500	-6524
2.98333	-6529
2.99167	-6534
3.00000	-6539
3.00833	-6544
3.01667	-6549
3.02500	-6553
3.03333	-6557
3.04167	-6560
3.05000	-6562
3.05833	-6564
3.06667	-6565
3.07500	-6565
3.08333	-6565
3.09167	-6566
3.10000	-6566
3.10833	-6562
3.11667	-6558
3.12500	-6551
3.13333	-6541
3.14167	-6529
3.15000	-6515
3.15833	-6498
3.16667	-6477
3.17500	-6451
3.18333	-6417
3.19167	-6376
3.20000	-6330
3.20833	-6277
3.21667	-6216
3.22500	-6145
3.23333	-6058
3.24167	-5960
3.25000	-5850
3.25833	-5725
3.26667	-5583
3.27500	-5425
3.28333	-5248
3.29167	-5053
3.30000	-4837
3.30833	-4598
3.31667	-4342
3.32500	-4066
3.33333	-3771
3.34167	-3460
3.35000	-3132
3.35833	-2787
3.36667	-2427
3.37500	-2055
3.38333	-1674
3.39167	-1284
3.40000	-888
3.40833	-485
3.41667	-79
3.42500	327
3.43333	732
3.44167	1134
3.45000	1533
3.45833	1929
3.46667	2322
3.47500	2710
3.48333	3093
3.49167	3469
3.50000	3837
3.50833	4200
3.51667	4559
3.52500	4913
3.53333	5261
3.54167	5605
3.55000	5945
3.55833	6281
3.56667	6615
3.57500	6947
3.58333	7278
3.59167	7609
3.60000	7938
3.60833	8268
3.61667	8602
3.62500	8937
3.63333	9274
3.64167	9616
3.65000	9966
3.65833	10326
3.66667	10699
3.67500	11082
3.68333	11480
3.69167	11896
3.70000	12335
3.70833	12800
3.71667	13295
3.72500	13825
3.73333	14393
3.74167	15006
3.75000	15669
3.75833	16386
3.76667	17160
3.77500	18000
3.78333	18909
3.79167	19891
3.80000	20952
3.80833	22093
3.81667	23317
3.82500	24625
3.83333	26019
3.84167	27498
3.85000	29061
3.85833	30706
3.86667	32427
3.87500	34216
3.88333	36069
3.89167	37978
3.90000	39935
3.90833	41933
3.91667	43964
3.92500	46018
3.93333	48087
3.94167	50163
3.95000	52240
3.95833	54309
3.96667	56364
3.97500	58400
3.98333	60416
3.99167	62407
4.00000	64369
4.00833	66304
4.01667	68211
4.02500	70091
4.03333	71945
4.04167	73779
4.05000	75593
4.05833	77389
4.06667	79172
4.07500	80942
4.08333	82704
4.09167	84461
4.10000	86216
4.10833	87970
4.11667	89724
4.12500	91480
4.13333	93241
4.14167	95003
4.15000	96767
4.15833	98533
4.16667	100299
4.17500	102062
4.18333	103817
4.19167	105565
4.20000	107296
4.20833	109006
4.21667	110689
4.22500	112343
4.23333	113960
4.24167	115532
4.25000	117056
4.25833	118524
4.26667	119932
4.27500	121275
4.28333	122546
4.29167	123739
4.30000	124851
4.30833	125876
4.31667	126813
4.32500	127662
4.33333	128419
4.34167	129085
4.35000	129658
4.35833	130142
4.36667	130536
4.37500	130844
4.38333	131069
4.39167	131214
4.40000	131282
4.40833	131276
4.41667	131202
4.42500	131062
4.43333	130863
4.44167	130606
4.45000	130297
4.45833	129939
4.46667	129534
4.47500	129088
4.48333	128602
4.49167	128080
4.50000	127523
4.50833	126935
4.51667	126319
4.52500	125677
4.53333	125007
4.54167	124312
4.55000	123592
4.55833	122847
4.56667	122078
4.57500	121285
4.58333	120469
4.59167	119630
4.60000	118767
4.60833	117881
4.61667	116973
4.62500	116042
4.63333	115090
4.64167	114115
4.65000	113116
4.65833	112094
4.66667	111050
4.67500	109986
4.68333	108904
4.69167	107804
4.70000	106686
4.70833	105552
4.71667	104403
4.72500	103243
4.73333	102071
4.74167	100888
4.75000	99698
4.75833	98502
4.76667	97301
4.77500	96098
4.78333	94893
4.79167	93691
4.80000	92491
4.80833	91296
4.81667	90108
4.82500	88927
4.83333	87755
4.84167	86597
4.85000	85451
4.85833	84319
4.86667	83201
4.87500	82098
4.88333	81012
4.89167	79945
4.90000	78897
4.90833	77868
4.91667	76862
4.92500	75876
4.93333	74912
4.94167	73969
4.95000	73048
4.95833	72150
4.96667	71277
4.97500	70427
4.98333	69600
4.99167	68797
5.00000	68019
5.00833	67264
5.01667	66533
5.02500	65825
5.03333	65140
5.04167	64477
5.05000	63838
5.05833	63222
5.06667	62626
5.07500	62053
5.08333	61499
5.09167	60962
5.10000	60443
5.10833	59940
5.11667	59455
5.12500	58986
5.13333	58534
5.14167	58094
5.15000	57666
5.15833	57249
5.16667	56841
5.17500	56444
5.18333	56056
5.19167	55675
5.20000	55301
5.20833	54933
5.21667	54572
5.22500	54216
5.23333	53863
5.24167	53518
5.25000	53178
5.25833	52841
5.26667	52510
5.27500	52184
5.28333	51865
5.29167	51552
5.30000	51246
5.30833	50945
5.31667	50650
5.32500	50364
5.33333	50088
5.34167	49821
5.35000	49564
5.35833	49315
5.36667	49074
5.37500	48846
5.38333	48632
5.39167	48432
5.40000	48243
5.40833	48067
5.41667	47903
5.42500	47751
5.43333	47614
5.44167	47489
5.45000	47377
5.45833	47281
5.46667	47200
5.47500	47134
5.48333	47082
5.49167	47045
5.50000	47023
5.50833	47014
5.51667	47019
5.52500	47037
5.53333	47067
5.54167	47112
5.55000	47171
5.55833	47241
5.56667	47325
5.57500	47423
5.58333	47534
5.59167	47657
5.60000	47791
5.60833	47938
5.61667	48096
5.62500	48265
5.63333	48445
5.64167	48639
5.65000	48848
5.65833	49070
5.66667	49304
5.67500	49549
5.68333	49807
5.69167	50081
5.70000	50369
5.70833	50670
5.71667	50984
5.72500	51315
5.73333	51663
5.74167	52031
5.75000	52417
5.75833	52822
5.76667	53244
5.77500	53687
5.78333	54150
5.79167	54633
5.80000	55139
5.80833	55668
5.81667	56221
5.82500	56797
5.83333	57399
5.84167	58026
5.85000	58677
5.85833	59355
5.86667	60060
5.87500	60791
5.88333	61548
5.89167	62331
5.90000	63140
5.90833	63975
5.91667	64840
5.92500	65729
5.93333	66643
5.94167	67580
5.95000	68542
5.95833	69527
5.96667	70533
5.97500	71559
5.98333	72605
5.99167	73668
6.00000	74746
6.00833	75839
6.01667	76945
6.02500	78060
6.03333	79184
6.04167	80315
6.05000	81450
6.05833	82588
6.06667	83724
6.07500	84859
6.08333	85990
6.09167	87115
6.10000	88235
6.10833	89347
6.11667	90453
6.12500	91548
6.13333	92634
6.14167	93711
6.15000	94781
6.15833	95841
6.16667	96893
6.17500	97939
6.18333	98977
6.19167	100008
6.20000	101031
6.20833	102052
6.21667	103071
6.22500	104087
6.23333	105100
6.24167	106114
6.25000	107130
6.25833	108149
6.26667	109172
6.27500	110196
6.28333	111224
6.29167	112259
6.30000	113302
6.30833	114352
6.31667	115406
6.32500	116468
6.33333	117534
6.34167	118606
6.35000	119687
6.35833	120776
6.36667	121869
6.37500	122967
6.38333	124072
6.39167	125179
6.40000	126290
6.40833	127401
6.41667	128511
6.42500	129620
6.43333	130723
6.44167	131820
6.45000	132908
6.45833	133986
6.46667	135053
6.47500	136108
6.48333	137148
6.49167	138171
6.50000	139173
6.50833	140156
6.51667	141117
6.52500	142053
6.53333	142962
6.54167	143843
6.55000	144697
6.55833	145521
6.56667	146317
6.57500	147087
6.58333	147830
6.59167	148542
6.60000	149223
6.60833	149876
6.61667	150501
6.62500	151099
6.63333	151677
6.64167	152234
6.65000	152770
6.65833	153289
6.66667	153794
6.67500	154285
6.68333	154768
6.69167	155243
6.70000	155713
6.70833	156180
6.71667	156648
6.72500	157120
6.73333	157601
6.74167	158090
6.75000	158587
6.75833	159097
6.76667	159625
6.77500	160167
6.78333	160728
6.79167	161308
6.80000	161911
6.80833	162541
6.81667	163194
6.82500	163871
6.83333	164575
6.84167	165308
6.85000	166070
6.85833	166860
6.86667	167678
6.87500	168525
6.88333	169404
6.89167	170313
6.90000	171253
6.90833	172222
6.91667	173221
6.92500	174250
6.93333	175307
6.94167	176392
6.95000	177504
6.95833	178645
6.96667	179815
6.97500	181012
6.98333	182237
6.99167	183487
7.00000	184761
7.00833	186059
7.01667	187382
7.02500	188731
7.03333	190103
7.04167	191500
7.05000	192918
7.05833	194359
7.06667	195823
7.07500	197308
7.08333	198815
7.09167	200344
7.10000	201897
7.10833	203473
7.11667	205067
7.12500	206683
7.13333	208322
7.14167	209986
7.15000	211671
7.15833	213376
7.16667	215102
7.17500	216848
7.18333	218614
7.19167	220398
7.20000	222200
7.20833	224020
7.21667	225852
7.22500	227696
7.23333	229549
7.24167	231406
7.25000	233266
7.25833	235124
7.26667	236978
7.27500	238826
7.28333	240663
7.29167	242485
7.30000	244285
7.30833	246056
7.31667	247797
7.32500	249504
7.33333	251169
7.34167	252787
7.35000	254358
7.35833	255878
7.36667	257339
7.37500	258738
7.38333	260073
7.39167	261338
7.40000	262528
7.40833	263640
7.41667	264670
7.42500	265620
7.43333	266484
7.44167	267259
7.45000	267941
7.45833	268531
7.46667	269023
7.47500	269417
7.48333	269707
7.49167	269892
7.50000	269969
7.50833	269940
7.51667	269799
7.52500	269542
7.53333	269169
7.54167	268679
7.55000	268075
7.55833	267357
7.56667	266529
7.57500	265595
7.58333	264560
7.59167	263433
7.60000	262226
7.60833	260951
7.61667	259623
7.62500	258255
7.63333	256867
7.64167	255481
7.65000	254118
7.65833	252804
7.66667	251561
7.67500	250413
7.68333	249390
7.69167	248521
7.70000	247831
7.70833	247346
7.71667	247098
7.72500	247113
7.73333	247424
7.74167	248066
7.75000	249068
7.75833	250461
7.76667	252284
7.77500	254564
7.78333	257336
7.79167	260633
7.80000	264482
7.80833	268905
7.81667	273921
7.82500	279546
7.83333	285789
7.84167	292651
7.85000	300126
7.85833	308197
7.86667	316845
7.87500	326044
7.88333	335762
7.89167	345957
7.90000	356585
7.90833	367598
7.91667	378939
7.92500	390551
7.93333	402371
7.94167	414339
7.95000	426387
7.95833	438454
7.96667	450481
7.97500	462413
7.98333	474178
7.99167	485710
8.00000	496959
8.00833	507875
8.01667	518417
8.02500	528559
8.03333	538220
8.04167	547369
8.05000	555981
8.05833	564029
8.06667	571488
8.07500	578334
8.08333	584548
8.09167	590111
8.10000	595007
8.10833	599220
8.11667	602749
8.12500	605586
8.13333	607737
8.14167	609197
8.15000	609965
8.15833	610054
8.16667	609469
8.17500	608221
8.18333	606330
8.19167	603806
8.20000	600666
8.20833	596928
8.21667	592610
8.22500	587736
8.23333	582329
8.24167	576405
8.25000	569989
8.25833	563103
8.26667	555771
8.27500	548016
8.28333	539861
8.29167	531319
8.30000	522414
8.30833	513163
8.31667	503579
8.32500	493687
8.33333	483505
8.34167	473055
8.35000	462353
8.35833	451420
8.36667	440277
8.37500	428948
8.38333	417461
8.39167	405846
8.40000	394127
8.40833	382334
8.41667	370495
8.42500	358639
8.43333	346806
8.44167	335031
8.45000	323344
8.45833	311780
8.46667	300369
8.47500	289141
8.48333	278133
8.49167	267370
8.50000	256878
8.50833	246684
8.51667	236810
8.52500	227276
8.53333	218100
8.54167	209301
8.55000	200897
8.55833	192903
8.56667	185331
8.57500	178194
8.58333	171499
8.59167	165260
8.60000	159484
8.60833	154182
8.61667	149356
8.62500	145018
8.63333	141177
8.64167	137837
8.65000	135003
8.65833	132685
8.66667	130888
8.67500	129615
8.68333	128873
8.69167	128665
8.70000	128994
8.70833	129858
8.71667	131258
8.72500	133189
8.73333	135646
8.74167	138622
8.75000	142104
8.75833	146080
8.76667	150530
8.77500	155436
8.78333	160777
8.79167	166531
8.80000	172670
8.80833	179166
8.81667	185989
8.82500	193105
8.83333	200484
8.84167	208091
8.85000	215903
8.85833	223887
8.86667	232014
8.87500	240260
8.88333	248595
8.89167	257001
8.90000	265460
8.90833	273959
8.91667	282489
8.92500	291047
8.93333	299626
8.94167	308227
8.95000	316854
8.95833	325526
8.96667	334258
8.97500	343069
8.98333	351979
8.99167	361012
9.00000	370197
9.00833	379563
9.01667	389141
9.02500	398964
9.03333	409065
9.04167	419470
9.05000	430209
9.05833	441312
9.06667	452811
9.07500	464731
9.08333	477094
9.09167	489912
9.10000	503194
9.10833	516947
9.11667	531178
9.12500	545885
9.13333	561063
9.14167	576699
9.15000	592768
9.15833	609244
9.16667	626102
9.17500	643310
9.18333	660828
9.19167	678614
9.20000	696617
9.20833	714782
9.21667	733053
9.22500	751374
9.23333	769689
9.24167	787938
9.25000	806052
9.25833	823969
9.26667	841625
9.27500	858952
9.28333	875901
9.29167	892413
9.30000	908424
9.30833	923879
9.31667	938721
9.32500	952897
9.33333	966365
9.34167	979089
9.35000	991032
9.35833	1002166
9.36667	1012461
9.37500	1021873
9.38333	1030395
9.39167	1038010
9.40000	1044709
9.40833	1050481
9.41667	1055333
9.42500	1059281
9.43333	1062315
9.44167	1064434
9.45000	1065657
9.45833	1066002
9.46667	1065497
9.47500	1064159
9.48333	1062025
9.49167	1059124
9.50000	1055488
9.50833	1051152
9.51667	1046147
9.52500	1040507
9.53333	1034268
9.54167	1027461
9.55000	1020125
9.55833	1012300
9.56667	1004033
9.57500	995369
9.58333	986340
9.59167	976978
9.60000	967322
9.60833	957414
9.61667	947291
9.62500	936991
9.63333	926535
9.64167	915953
9.65000	905279
9.65833	894551
9.66667	883785
9.67500	873001
9.68333	862221
9.69167	851463
9.70000	840743
9.70833	830084
9.71667	819504
9.72500	809011
9.73333	798616
9.74167	788326
9.75000	778139
9.75833	768064
9.76667	758104
9.77500	748269
9.78333	738563
9.79167	728981
9.80000	719521
9.80833	710180
9.81667	700957
9.82500	691850
9.83333	682858
9.84167	673979
9.85000	665205
9.85833	656531
9.86667	647952
9.87500	639461
9.88333	631057
9.89167	622735
9.90000	614493
9.90833	606321
9.91667	598213
9.92500	590167
9.93333	582182
9.94167	574251
9.95000	566365
9.95833	558523
9.96667	550724
9.97500	542964
9.98333	535233
9.99167	527531
10.00000	519859
10.00833	512214
10.01667	504597
10.02500	497006
10.03333	489438
10.04167	481895
10.05000	474378
10.05833	466885
10.06667	459414
10.07500	451966
10.08333	444540
10.09167	437140
10.10000	429770
10.10833	422431
10.11667	415122
10.12500	407848
10.13333	400610
10.14167	393410
10.15000	386250
10.15833	379137
10.16667	372071
10.17500	365052
10.18333	358083
10.19167	351167
10.20000	344305
10.20833	337501
10.21667	330758
10.22500	324077
10.23333	317461
10.24167	310915
10.25000	304438
10.25833	298033
10.26667	291701
10.27500	285449
10.28333	279279
10.29167	273185
10.30000	267173
10.30833	261242
10.31667	255396
10.32500	249638
10.33333	243969
10.34167	238390
10.35000	232902
10.35833	227505
10.36667	222201
10.37500	216989
10.38333	211872
10.39167	206852
10.40000	201929
10.40833	197100
10.41667	192365
10.42500	187725
10.43333	183180
10.44167	178730
10.45000	174374
10.45833	170112
10.46667	165945
10.47500	161869
10.48333	157884
10.49167	153992
10.50000	150191
10.50833	146480
10.51667	142857
10.52500	139322
10.53333	135873
10.54167	132510
10.55000	129230
10.55833	126035
10.56667	122925
10.57500	119894
10.58333	116941
10.59167	114066
10.60000	111270
10.60833	108548
10.61667	105900
10.62500	103324
10.63333	100819
10.64167	98382
10.65000	96014
10.65833	93712
10.66667	91473
10.67500	89297
10.68333	87184
10.69167	85130
10.70000	83133
10.70833	81197
10.71667	79317
10.72500	77488
10.73333	75712
10.74167	73987
10.75000	72311
10.75833	70683
10.76667	69104
10.77500	67570
10.78333	66080
10.79167	64633
10.80000	63228
10.80833	61865
10.81667	60540
10.82500	59256
10.83333	58009
10.84167	56801
10.85000	55627
10.85833	54488
10.86667	53383
10.87500	52308
10.88333	51265
10.89167	50252
10.90000	49269
10.90833	48316
10.91667	47393
10.92500	46497
10.93333	45628
10.94167	44785
10.95000	43965
10.95833	43167
10.96667	42393
10.97500	41640
10.98333	40908
10.99167	40199
11.00000	39513

[LC Chromatogram(Detector B-Ch1)]
Interval(msec)	500
# of Points	1321
Start Time(min)	0.000
End Time(min)	11.000
Intensity Units	mV
Intensity Multiplier	0.001
Ex. Wavelength(nm)	482
Em. Wavelength(nm)	520
R.Time (min)	Intensity
0.00000	-13000
0.00833	-13000
0.01667	-2187
0.02500	-323
0.03333	-306
0.04167	-221
0.05000	-450
0.05833	-668
0.06667	-865
0.07500	-1042
0.08333	-1212
0.09167	-1378
0.10000	-1550
0.10833	-1737
0.11667	-1930
0.12500	-2128
0.13333	-2324
0.14167	-2519
0.15000	-2708
0.15833	-2894
0.16667	-3084
0.17500	-3275
0.18333	-3478
0.19167	-3696
0.20000	-3918
0.20833	-4139
0.21667	-4360
0.22500	-4576
0.23333	-4790
0.24167	-4997
0.25000	-5193
0.25833	-5381
0.26667	-5558
0.27500	-5733
0.28333	-5905
0.29167	-6073
0.30000	-6240
0.30833	-6411
0.31667	-6585
0.32500	-6763
0.33333	-6943
0.34167	-7130
0.35000	-7318
0.35833	-7504
0.36667	-7694
0.37500	-7882
0.38333	-8068
0.39167	-8253
0.40000	-8441
0.40833	-8627
0.41667	-8812
0.42500	-8992
0.43333	-9171
0.44167	-9355
0.45000	-9539
0.45833	-9718
0.46667	-9891
0.47500	-10065
0.48333	-10243
0.49167	-10421
0.50000	-10593
0.50833	-10767
0.51667	-10940
0.52500	-11110
0.53333	-11276
0.54167	-11441
0.55000	-11607
0.55833	-11775
0.56667	-11945
0.57500	-12110
0.58333	-12271
0.59167	-12441
0.60000	-12608
0.60833	-12770
0.61667	-12934
0.62500	-13094
0.63333	-13253
0.64167	-13415
0.65000	-13573
0.65833	-13724
0.66667	-13875
0.67500	-14025
0.68333	-14178
0.69167	-14331
0.70000	-14485
0.70833	-14633
0.71667	-14779
0.72500	-14928
0.73333	-15073
0.74167	-15217
0.75000	-15365
0.75833	-15512
0.76667	-15658
0.77500	-15803
0.78333	-15944
0.79167	-16088
0.80000	-16222
0.80833	-16358
0.81667	-16496
0.82500	-16636
0.83333	-16772
0.84167	-16908
0.85000	-17045
0.85833	-17183
0.86667	-17317
0.87500	-17451
0.88333	-17586
0.89167	-17719
0.90000	-17850
0.90833	-17980
0.91667	-18112
0.92500	-18240
0.93333	-18368
0.94167	-18495
0.95000	-18617
0.95833	-18741
0.96667	-18864
0.97500	-18984
0.98333	-19104
0.99167	-19221
1.00000	-19338
1.00833	-19457
1.01667	-19578
1.02500	-19698
1.03333	-19818
1.04167	-19932
1.05000	-20049
1.05833	-20166
1.06667	-20280
1.07500	-20396
1.08333	-20511
1.09167	-20627
1.10000	-20742
1.10833	-20859
1.11667	-20969
1.12500	-21079
1.13333	-21190
1.14167	-21301
1.15000	-21412
1.15833	-21524
1.16667	-21630
1.17500	-21735
1.18333	-21835
1.19167	-21940
1.20000	-22047
1.20833	-22152
1.21667	-22250
1.22500	-22347
1.23333	-22446
1.24167	-22544
1.25000	-22636
1.25833	-22729
1.26667	-22824
1.27500	-22916
1.28333	-23005
1.29167	-23095
1.30000	-23187
1.30833	-23279
1.31667	-23375
1.32500	-23474
1.33333	-23573
1.34167	-23669
1.35000	-23762
1.35833	-23852
1.36667	-23940
1.37500	-24030
1.38333	-24119
1.39167	-24207
1.40000	-24296
1.40833	-24385
1.41667	-24467
1.42500	-24554
1.43333	-24645
1.44167	-24736
1.45000	-24829
1.45833	-24922
1.46667	-25008
1.47500	-25089
1.48333	-25172
1.49167	-25256
1.50000	-25337
1.50833	-25420
1.51667	-25504
1.52500	-25583
1.53333	-25662
1.54167	-25743
1.55000	-25828
1.55833	-25912
1.56667	-25994
1.57500	-26070
1.58333	-26144
1.59167	-26221
1.60000	-26298
1.60833	-26371
1.61667	-26448
1.62500	-26523
1.63333	-26597
1.64167	-26669
1.65000	-26745
1.65833	-26820
1.66667	-26897
1.67500	-26974
1.68333	-27050
1.69167	-27121
1.70000	-27189
1.70833	-27259
1.71667	-27328
1.72500	-27397
1.73333	-27465
1.74167	-27535
1.75000	-27606
1.75833	-27677
1.76667	-27746
1.77500	-27813
1.78333	-27878
1.79167	-27947
1.80000	-28014
1.80833	-28081
1.81667	-28148
1.82500	-28214
1.83333	-28280
1.84167	-28345
1.85000	-28412
1.85833	-28478
1.86667	-28545
1.87500	-28613
1.88333	-28678
1.89167	-28747
1.90000	-28817
1.90833	-28887
1.91667	-28950
1.92500	-29011
1.93333	-29073
1.94167	-29136
1.95000	-29200
1.95833	-29265
1.96667	-29327
1.97500	-29393
1.98333	-29459
1.99167	-29519
2.00000	-29582
2.00833	-29647
2.01667	-29711
2.02500	-29775
2.03333	-29839
2.04167	-29900
2.05000	-29959
2.05833	-30023
2.06667	-30088
2.07500	-30149
2.08333	-30207
2.09167	-30266
2.10000	-30327
2.10833	-30389
2.11667	-30448
2.12500	-30504
2.13333	-30561
2.14167	-30622
2.15000	-30679
2.15833	-30737
2.16667	-30795
2.17500	-30851
2.18333	-30906
2.19167	-30966
2.20000	-31026
2.20833	-31082
2.21667	-31140
2.22500	-31196
2.23333	-31250
2.24167	-31304
2.25000	-31356
2.25833	-31409
2.26667	-31463
2.27500	-31518
2.28333	-31576
2.29167	-31633
2.30000	-31688
2.30833	-31740
2.31667	-31795
2.32500	-31849
2.33333	-31904
2.34167	-31955
2.35000	-32006
2.35833	-32061
2.36667	-32116
2.37500	-32173
2.38333	-32227
2.39167	-32278
2.40000	-32330
2.40833	-32383
2.41667	-32437
2.42500	-32489
2.43333	-32542
2.44167	-32596
2.45000	-32646
2.45833	-32696
2.46667	-32748
2.47500	-32800
2.48333	-32848
2.49167	-32896
2.50000	-32947
2.50833	-32997
2.51667	-33048
2.52500	-33097
2.53333	-33145
2.54167	-33193
2.55000	-33243
2.55833	-33292
2.56667	-33341
2.57500	-33392
2.58333	-33440
2.59167	-33488
2.60000	-33536
2.60833	-33587
2.61667	-33639
2.62500	-33689
2.63333	-33737
2.64167	-33786
2.65000	-33835
2.65833	-33884
2.66667	-33937
2.67500	-33986
2.68333	-34035
2.69167	-34085
2.70000	-34137
2.70833	-34188
2.71667	-34239
2.72500	-34285
2.73333	-34327
2.74167	-34369
2.75000	-34413
2.75833	-34458
2.76667	-34503
2.77500	-34549
2.78333	-34596
2.79167	-34642
2.80000	-34684
2.80833	-34725
2.81667	-34768
2.82500	-34813
2.83333	-34857
2.84167	-34898
2.85000	-34938
2.85833	-34980
2.86667	-35020
2.87500	-35059
2.88333	-35097
2.89167	-35138
2.90000	-35177
2.90833	-35216
2.91667	-35256
2.92500	-35296
2.93333	-35337
2.94167	-35377
2.95000	-35415
2.95833	-35450
2.96667	-35488
2.97500	-35527
2.98333	-35565
2.99167	-35607
3.00000	-35648
3.00833	-35690
3.01667	-35732
3.02500	-35771
3.03333	-35813
3.04167	-35857
3.05000	-35896
3.05833	-35933
3.06667	-35971
3.07500	-36008
3.08333	-36047
3.09167	-36089
3.10000	-36129
3.10833	-36168
3.11667	-36206
3.12500	-36245
3.13333	-36282
3.14167	-36318
3.15000	-36352
3.15833	-36385
3.16667	-36417
3.17500	-36453
3.18333	-36491
3.19167	-36531
3.20000	-36571
3.20833	-36609
3.21667	-36643
3.22500	-36676
3.23333	-36710
3.24167	-36746
3.25000	-36779
3.25833	-36813
3.26667	-36849
3.27500	-36885
3.28333	-36921
3.29167	-36954
3.30000	-36989
3.30833	-37025
3.31667	-37060
3.32500	-37095
3.33333	-37128
3.34167	-37159
3.35000	-37188
3.35833	-37218
3.36667	-37250
3.37500	-37282
3.38333	-37311
3.39167	-37337
3.40000	-37362
3.40833	-37389
3.41667	-37417
3.42500	-37446
3.43333	-37467
3.44167	-37485
3.45000	-37500
3.45833	-37515
3.46667	-37524
3.47500	-37529
3.48333	-37524
3.49167	-37507
3.50000	-37483
3.50833	-37452
3.51667	-37406
3.52500	-37343
3.53333	-37261
3.54167	-37158
3.55000	-37036
3.55833	-36894
3.56667	-36726
3.57500	-36526
3.58333	-36293
3.59167	-36028
3.60000	-35727
3.60833	-35393
3.61667	-35019
3.62500	-34601
3.63333	-34146
3.64167	-33649
3.65000	-33107
3.65833	-32528
3.66667	-31911
3.67500	-31256
3.68333	-30573
3.69167	-29858
3.70000	-29113
3.70833	-28342
3.71667	-27542
3.72500	-26729
3.73333	-25904
3.74167	-25065
3.75000	-24208
3.75833	-23342
3.76667	-22472
3.77500	-21598
3.78333	-20725
3.79167	-19856
3.80000	-18997
3.80833	-18143
3.81667	-17293
3.82500	-16450
3.83333	-15619
3.84167	-14800
3.85000	-13999
3.85833	-13213
3.86667	-12434
3.87500	-11665
3.88333	-10908
3.89167	-10161
3.90000	-9423
3.90833	-8690
3.91667	-7966
3.92500	-7250
3.93333	-6540
3.94167	-5837
3.95000	-5138
3.95833	-4440
3.96667	-3742
3.97500	-3045
3.98333	-2343
3.99167	-1636
4.00000	-926
4.00833	-210
4.01667	515
4.02500	1254
4.03333	2006
4.04167	2777
4.05000	3560
4.05833	4354
4.06667	5166
4.07500	6002
4.08333	6865
4.09167	7761
4.10000	8679
4.10833	9626
4.11667	10607
4.12500	11625
4.13333	12683
4.14167	13783
4.15000	14928
4.15833	16124
4.16667	17373
4.17500	18681
4.18333	20052
4.19167	21481
4.20000	22984
4.20833	24564
4.21667	26229
4.22500	27988
4.23333	29844
4.24167	31805
4.25000	33886
4.25833	36099
4.26667	38457
4.27500	40959
4.28333	43632
4.29167	46500
4.30000	49565
4.30833	52848
4.31667	56363
4.32500	60132
4.33333	64178
4.34167	68531
4.35000	73207
4.35833	78231
4.36667	83623
4.37500	89419
4.38333	95613
4.39167	102224
4.40000	109293
4.40833	116809
4.41667	124794
4.42500	133241
4.43333	142154
4.44167	151535
4.45000	161371
4.45833	171673
4.46667	182446
4.47500	193642
4.48333	205229
4.49167	217195
4.50000	229506
4.50833	242110
4.51667	254970
4.52500	268040
4.53333	281297
4.54167	294674
4.55000	308108
4.55833	321548
4.56667	334942
4.57500	348208
4.58333	361288
4.59167	374158
4.60000	386747
4.60833	398964
4.61667	410762
4.62500	422082
4.63333	432896
4.64167	443151
4.65000	452804
4.65833	461822
4.66667	470142
4.67500	477737
4.68333	484601
4.69167	490728
4.70000	496106
4.70833	500776
4.71667	504703
4.72500	507886
4.73333	510361
4.74167	512138
4.75000	513219
4.75833	513633
4.76667	513430
4.77500	512635
4.78333	511300
4.79167	509410
4.80000	506996
4.80833	504113
4.81667	500788
4.82500	497057
4.83333	492955
4.84167	488511
4.85000	483738
4.85833	478679
4.86667	473375
4.87500	467849
4.88333	462126
4.89167	456211
4.90000	450113
4.90833	443864
4.91667	437512
4.92500	431066
4.93333	424511
4.94167	417869
4.95000	411158
4.95833	404423
4.96667	397663
4.97500	390886
4.98333	384091
4.99167	377289
5.00000	370490
5.00833	363718
5.01667	357002
5.02500	350339
5.03333	343706
5.04167	337110
5.05000	330585
5.05833	324151
5.06667	317801
5.07500	311531
5.08333	305324
5.09167	299175
5.10000	293112
5.10833	287134
5.11667	281254
5.12500	275478
5.13333	269788
5.14167	264169
5.15000	258618
5.15833	253140
5.16667	247753
5.17500	242447
5.18333	237231
5.19167	232105
5.20000	227063
5.20833	222115
5.21667	217279
5.22500	212518
5.23333	207836
5.24167	203242
5.25000	198735
5.25833	194314
5.26667	189988
5.27500	185752
5.28333	181604
5.29167	177554
5.30000	173600
5.30833	169736
5.31667	165959
5.32500	162256
5.33333	158633
5.34167	155092
5.35000	151637
5.35833	148270
5.36667	144991
5.37500	141779
5.38333	138626
5.39167	135543
5.40000	132542
5.40833	129602
5.41667	126727
5.42500	123924
5.43333	121182
5.44167	118504
5.45000	115886
5.45833	113345
5.46667	110867
5.47500	108446
5.48333	106088
5.49167	103785
5.50000	101545
5.50833	99367
5.51667	97234
5.52500	95158
5.53333	93132
5.54167	91147
5.55000	89214
5.55833	87334
5.56667	85500
5.57500	83709
5.58333	81950
5.59167	80233
5.60000	78565
5.60833	76933
5.61667	75342
5.62500	73788
5.63333	72280
5.64167	70806
5.65000	69369
5.65833	67962
5.66667	66588
5.67500	65260
5.68333	63965
5.69167	62704
5.70000	61462
5.70833	60250
5.71667	59076
5.72500	57939
5.73333	56830
5.74167	55749
5.75000	54694
5.75833	53670
5.76667	52676
5.77500	51719
5.78333	50786
5.79167	49874
5.80000	48986
5.80833	48125
5.81667	47289
5.82500	46475
5.83333	45678
5.84167	44907
5.85000	44156
5.85833	43418
5.86667	42692
5.87500	41984
5.88333	41298
5.89167	40628
5.90000	39982
5.90833	39348
5.91667	38724
5.92500	38108
5.93333	37517
5.94167	36934
5.95000	36359
5.95833	35791
5.96667	35242
5.97500	34703
5.98333	34171
5.99167	33646
6.00000	33125
6.00833	32607
6.01667	32104
6.02500	31608
6.03333	31118
6.04167	30632
6.05000	30153
6.05833	29686
6.06667	29219
6.07500	28751
6.08333	28290
6.09167	27832
6.10000	27382
6.10833	26934
6.11667	26486
6.12500	26042
6.13333	25609
6.14167	25178
6.15000	24746
6.15833	24316
6.16667	23883
6.17500	23451
6.18333	23030
6.19167	22619
6.20000	22210
6.20833	21805
6.21667	21401
6.22500	21002
6.23333	20606
6.24167	20219
6.25000	19840
6.25833	19458
6.26667	19075
6.27500	18698
6.28333	18321
6.29167	17947
6.30000	17573
6.30833	17200
6.31667	16835
6.32500	16475
6.33333	16120
6.34167	15772
6.35000	15428
6.35833	15080
6.36667	14735
6.37500	14398
6.38333	14069
6.39167	13749
6.40000	13433
6.40833	13120
6.41667	12813
6.42500	12504
6.43333	12198
6.44167	11894
6.45000	11595
6.45833	11309
6.46667	11030
6.47500	10754
6.48333	10484
6.49167	10223
6.50000	9974
6.50833	9728
6.51667	9484
6.52500	9249
6.53333	9017
6.54167	8795
6.55000	8587
6.55833	8385
6.56667	8190
6.57500	7999
6.58333	7821
6.59167	7651
6.60000	7486
6.60833	7330
6.61667	7187
6.62500	7054
6.63333	6933
6.64167	6824
6.65000	6725
6.65833	6634
6.66667	6550
6.67500	6483
6.68333	6430
6.69167	6388
6.70000	6362
6.70833	6350
6.71667	6352
6.72500	6373
6.73333	6409
6.74167	6459
6.75000	6526
6.75833	6610
6.76667	6719
6.77500	6849
6.78333	6998
6.79167	7168
6.80000	7365
6.80833	7587
6.81667	7825
6.82500	8090
6.83333	8386
6.84167	8711
6.85000	9070
6.85833	9459
6.86667	9879
6.87500	10336
6.88333	10828
6.89167	11357
6.90000	11929
6.90833	12538
6.91667	13198
6.92500	13909
6.93333	14671
6.94167	15488
6.95000	16368
6.95833	17313
6.96667	18326
6.97500	19407
6.98333	20561
6.99167	21792
7.00000	23113
7.00833	24538
7.01667	26071
7.02500	27709
7.03333	29460
7.04167	31336
7.05000	33354
7.05833	35519
7.06667	37843
7.07500	40337
7.08333	43020
7.09167	45913
7.10000	49033
7.10833	52394
7.11667	56014
7.12500	59921
7.13333	64137
7.14167	68687
7.15000	73597
7.15833	78898
7.16667	84633
7.17500	90827
7.18333	97499
7.19167	104694
7.20000	112445
7.20833	120793
7.21667	129783
7.22500	139460
7.23333	149856
7.24167	161011
7.25000	172978
7.25833	185787
7.26667	199497
7.27500	214159
7.28333	229819
7.29167	246490
7.30000	264230
7.30833	283080
7.31667	303064
7.32500	324224
7.33333	346593
7.34167	370170
7.35000	394965
7.35833	420973
7.36667	448237
7.37500	476745
7.38333	506491
7.39167	537461
7.40000	569616
7.40833	602957
7.41667	637486
7.42500	673156
7.43333	709931
7.44167	747756
7.45000	786604
7.45833	826380
7.46667	867009
7.47500	908406
7.48333	950467
7.49167	993124
7.50000	1036311
7.50833	1079864
7.51667	1123654
7.52500	1167679
7.53333	1211857
7.54167	1256068
7.55000	1300244
7.55833	1344249
7.56667	1387964
7.57500	1431265
7.58333	1474025
7.59167	1516107
7.60000	1557432
7.60833	1597957
7.61667	1637540
7.62500	1676110
7.63333	1713563
7.64167	1749830
7.65000	1784810
7.65833	1818441
7.66667	1850677
7.67500	1881483
7.68333	1910705
7.69167	1938352
7.70000	1964427
7.70833	1988862
7.71667	2011660
7.72500	2032793
7.73333	2052221
7.74167	2069952
7.75000	2085972
7.75833	2100281
7.76667	2112938
7.77500	2123928
7.78333	2133228
7.79167	2140869
7.80000	2146877
7.80833	2151285
7.81667	2154130
7.82500	2155491
7.83333	2155357
7.84167	2153774
7.85000	2150743
7.85833	2146356
7.86667	2140641
7.87500	2133652
7.88333	2125380
7.89167	2115960
7.90000	2105370
7.90833	2093706
7.91667	2081005
7.92500	2067325
7.93333	2052660
7.94167	2037096
7.95000	2020686
7.95833	2003429
7.96667	1985340
7.97500	1966507
7.98333	1946961
7.99167	1926733
8.00000	1905869
8.00833	1884445
8.01667	1862413
8.02500	1839837
8.03333	1816762
8.04167	1793202
8.05000	1769223
8.05833	1744866
8.06667	1720189
8.07500	1695261
8.08333	1670129
8.09167	1644820
8.10000	1619373
8.10833	1593818
8.11667	1568230
8.12500	1542683
8.13333	1517216
8.14167	1491905
8.15000	1466723
8.15833	1441760
8.16667	1417082
8.17500	1392716
8.18333	1368718
8.19167	1345139
8.20000	1321985
8.20833	1299296
8.21667	1277095
8.22500	1255393
8.23333	1234229
8.24167	1213570
8.25000	1193458
8.25833	1173896
8.26667	1154931
8.27500	1136534
8.28333	1118730
8.29167	1101504
8.30000	1084841
8.30833	1068748
8.31667	1053233
8.32500	1038291
8.33333	1023890
8.34167	1009985
8.35000	996577
8.35833	983656
8.36667	971188
8.37500	959159
8.38333	947532
8.39167	936303
8.40000	925413
8.40833	914869
8.41667	904647
8.42500	894735
8.43333	885083
8.44167	875658
8.45000	866474
8.45833	857512
8.46667	848703
8.47500	840031
8.48333	831509
8.49167	823104
8.50000	814771
8.50833	806522
8.51667	798356
8.52500	790224
8.53333	782110
8.54167	774032
8.55000	765973
8.55833	757911
8.56667	749838
8.57500	741730
8.58333	733613
8.59167	725491
8.60000	717315
8.60833	709108
8.61667	700861
8.62500	692586
8.63333	684302
8.64167	675958
8.65000	667565
8.65833	659136
8.66667	650683
8.67500	642191
8.68333	633696
8.69167	625182
8.70000	616660
8.70833	608134
8.71667	599600
8.72500	591073
8.73333	582577
8.74167	574118
8.75000	565708
8.75833	557350
8.76667	549058
8.77500	540873
8.78333	532798
8.79167	524828
8.80000	516989
8.80833	509274
8.81667	501693
8.82500	494278
8.83333	487034
8.84167	479958
8.85000	473071
8.85833	466404
8.86667	459953
8.87500	453704
8.88333	447688
8.89167	441904
8.90000	436359
8.90833	431065
8.91667	426025
8.92500	421266
8.93333	416778
8.94167	412547
8.95000	408581
8.95833	404888
8.96667	401453
8.97500	398296
8.98333	395415
8.99167	392797
9.00000	390438
9.00833	388309
9.01667	386413
9.02500	384754
9.03333	383305
9.04167	382062
9.05000	381005
9.05833	380126
9.06667	379413
9.07500	378855
9.08333	378427
9.09167	378123
9.10000	377907
9.10833	377763
9.11667	377673
9.12500	377640
9.13333	377635
9.14167	377652
9.15000	377659
9.15833	377644
9.16667	377597
9.17500	377515
9.18333	377370
9.19167	377144
9.20000	376837
9.20833	376427
9.21667	375919
9.22500	375288
9.23333	374533
9.24167	373649
9.25000	372612
9.25833	371416
9.26667	370071
9.27500	368571
9.28333	366910
9.29167	365086
9.30000	363108
9.30833	360954
9.31667	358632
9.32500	356154
9.33333	353513
9.34167	350720
9.35000	347758
9.35833	344639
9.36667	341393
9.37500	338020
9.38333	334492
9.39167	330822
9.40000	327018
9.40833	323097
9.41667	319056
9.42500	314909
9.43333	310663
9.44167	306308
9.45000	301887
9.45833	297394
9.46667	292833
9.47500	288209
9.48333	283537
9.49167	278809
9.50000	274032
9.50833	269232
9.51667	264395
9.52500	259530
9.53333	254657
9.54167	249780
9.55000	244895
9.55833	240018
9.56667	235164
9.57500	230312
9.58333	225464
9.59167	220639
9.60000	215847
9.60833	211085
9.61667	206364
9.62500	201685
9.63333	197054
9.64167	192473
9.65000	187950
9.65833	183470
9.66667	179052
9.67500	174714
9.68333	170450
9.69167	166249
9.70000	162117
9.70833	158052
9.71667	154059
9.72500	150132
9.73333	146289
9.74167	142520
9.75000	138831
9.75833	135217
9.76667	131674
9.77500	128198
9.78333	124793
9.79167	121465
9.80000	118212
9.80833	115036
9.81667	111942
9.82500	108903
9.83333	105932
9.84167	103032
9.85000	100209
9.85833	97452
9.86667	94768
9.87500	92149
9.88333	89596
9.89167	87112
9.90000	84694
9.90833	82342
9.91667	80050
9.92500	77811
9.93333	75630
9.94167	73501
9.95000	71426
9.95833	69402
9.96667	67429
9.97500	65511
9.98333	63643
9.99167	61818
10.00000	60039
10.00833	58313
10.01667	56630
10.02500	54988
10.03333	53377
10.04167	51805
10.05000	50271
10.05833	48772
10.06667	47313
10.07500	45886
10.08333	44501
10.09167	43162
10.10000	41856
10.10833	40581
10.11667	39334
10.12500	38118
10.13333	36941
10.14167	35797
10.15000	34682
10.15833	33592
10.16667	32528
10.17500	31493
10.18333	30483
10.19167	29493
10.20000	28530
10.20833	27584
10.21667	26657
10.22500	25758
10.23333	24882
10.24167	24033
10.25000	23208
10.25833	22398
10.26667	21601
10.27500	20822
10.28333	20061
10.29167	19315
10.30000	18590
10.30833	17882
10.31667	17190
10.32500	16513
10.33333	15850
10.34167	15201
10.35000	14569
10.35833	13954
10.36667	13352
10.37500	12763
10.38333	12189
10.39167	11630
10.40000	11081
10.40833	10541
10.41667	10009
10.42500	9498
10.43333	9000
10.44167	8504
10.45000	8015
10.45833	7531
10.46667	7050
10.47500	6586
10.48333	6134
10.49167	5687
10.50000	5243
10.50833	4810
10.51667	4383
10.52500	3964
10.53333	3557
10.54167	3148
10.55000	2739
10.55833	2337
10.56667	1945
10.57500	1566
10.58333	1193
10.59167	830
10.60000	479
10.60833	128
10.61667	-217
10.62500	-557
10.63333	-900
10.64167	-1234
10.65000	-1563
10.65833	-1888
10.66667	-2205
10.67500	-2517
10.68333	-2824
10.69167	-3131
10.70000	-3430
10.70833	-3723
10.71667	-4014
10.72500	-4301
10.73333	-4579
10.74167	-4854
10.75000	-5132
10.75833	-5407
10.76667	-5679
10.77500	-5948
10.78333	-6209
10.79167	-6466
10.80000	-6719
10.80833	-6965
10.81667	-7206
10.82500	-7443
10.83333	-7680
10.84167	-7919
10.85000	-8152
10.85833	-8383
10.86667	-8612
10.87500	-8839
10.88333	-9067
10.89167	-9292
10.90000	-9509
10.90833	-9720
10.91667	-9927
10.92500	-10132
10.93333	-10338
10.94167	-10542
10.95000	-10744
10.95833	-10940
10.96667	-11133
10.97500	-11335
10.98333	-11536
10.99167	-11735
11.00000	-11931

[LC Status Trace(Pump A Pressure)]
Interval(msec)	1000
# of Points	661
Start Time(min)	0.000
End Time(min)	11.000
Intensity Units	kgf/cm2
Intensity Multiplier	1
R.Time (min)	Intensity
0.00000	44.1
0.01667	44.1
0.03333	31.9
0.05000	35.3
0.06667	37.6
0.08333	39.3
0.10000	40.6
0.11667	41.2
0.13333	41.5
0.15000	42.3
0.16667	42.9
0.18333	43.4
0.20000	43.6
0.21667	43.8
0.23333	43.9
0.25000	43.9
0.26667	44.0
0.28333	44.3
0.30000	44.3
0.31667	44.4
0.33333	44.4
0.35000	44.4
0.36667	44.5
0.38333	44.7
0.40000	44.5
0.41667	44.7
0.43333	44.7
0.45000	44.8
0.46667	44.7
0.48333	44.8
0.50000	44.8
0.51667	44.8
0.53333	44.9
0.55000	44.8
0.56667	44.8
0.58333	44.9
0.60000	44.8
0.61667	44.9
0.63333	44.8
0.65000	44.8
0.66667	44.8
0.68333	44.8
0.70000	44.9
0.71667	44.8
0.73333	44.8
0.75000	44.7
0.76667	44.7
0.78333	44.8
0.80000	44.7
0.81667	44.7
0.83333	44.8
0.85000	44.7
0.86667	44.7
0.88333	44.8
0.90000	44.5
0.91667	44.5
0.93333	44.7
0.95000	44.4
0.96667	44.5
0.98333	44.7
1.00000	44.4
1.01667	44.5
1.03333	44.5
1.05000	44.7
1.06667	44.5
1.08333	44.5
1.10000	44.5
1.11667	44.5
1.13333	44.5
1.15000	44.5
1.16667	44.5
1.18333	44.5
1.20000	44.5
1.21667	44.5
1.23333	44.5
1.25000	44.7
1.26667	44.5
1.28333	44.4
1.30000	44.5
1.31667	44.5
1.33333	44.5
1.35000	44.4
1.36667	44.5
1.38333	44.7
1.40000	44.5
1.41667	44.4
1.43333	44.4
1.45000	44.5
1.46667	44.4
1.48333	44.4
1.50000	44.5
1.51667	44.3
1.53333	44.4
1.55000	44.4
1.56667	44.4
1.58333	44.3
1.60000	44.5
1.61667	44.5
1.63333	44.3
1.65000	44.5
1.66667	44.5
1.68333	44.4
1.70000	44.4
1.71667	44.5
1.73333	44.5
1.75000	44.4
1.76667	44.5
1.78333	44.5
1.80000	44.4
1.81667	44.5
1.83333	44.5
1.85000	44.5
1.86667	44.4
1.88333	44.4
1.90000	44.5
1.91667	44.4
1.93333	44.4
1.95000	44.5
1.96667	44.4
1.98333	44.5
2.00000	44.5
2.01667	44.3
2.03333	44.5
2.05000	44.5
2.06667	44.4
2.08333	44.4
2.10000	44.5
2.11667	44.4
2.13333	44.4
2.15000	44.4
2.16667	44.7
2.18333	44.3
2.20000	44.5
2.21667	44.5
2.23333	44.4
2.25000	44.5
2.26667	44.5
2.28333	44.5
2.30000	44.4
2.31667	44.4
2.33333	44.5
2.35000	44.4
2.36667	44.4
2.38333	44.5
2.40000	44.4
2.41667	44.4
2.43333	44.4
2.45000	44.5
2.46667	44.4
2.48333	44.5
2.50000	44.4
2.51667	44.4
2.53333	44.5
2.55000	44.5
2.56667	44.4
2.58333	44.5
2.60000	44.5
2.61667	44.4
2.63333	44.4
2.65000	44.4
2.66667	44.4
2.68333	44.5
2.70000	44.4
2.71667	44.4
2.73333	44.5
2.75000	44.4
2.76667	44.5
2.78333	44.3
2.80000	44.5
2.81667	44.4
2.83333	44.4
2.85000	44.4
2.86667	44.5
2.88333	44.5
2.90000	44.5
2.91667	44.5
2.93333	44.5
2.95000	44.4
2.96667	44.4
2.98333	44.4
3.00000	44.3
3.01667	44.4
3.03333	44.4
3.05000	44.5
3.06667	44.4
3.08333	44.4
3.10000	44.4
3.11667	44.4
3.13333	44.5
3.15000	44.4
3.16667	44.3
3.18333	44.4
3.20000	44.4
3.21667	44.4
3.23333	44.4
3.25000	44.5
3.26667	44.3
3.28333	44.4
3.30000	44.5
3.31667	44.4
3.33333	44.4
3.35000	44.4
3.36667	44.4
3.38333	44.3
3.40000	44.4
3.41667	44.5
3.43333	44.4
3.45000	44.4
3.46667	44.3
3.48333	44.4
3.50000	44.4
3.51667	44.3
3.53333	44.4
3.55000	44.5
3.56667	44.4
3.58333	44.4
3.60000	44.4
3.61667	44.3
3.63333	44.4
3.65000	44.4
3.66667	44.4
3.68333	44.4
3.70000	44.5
3.71667	44.4
3.73333	44.4
3.75000	44.5
3.76667	44.4
3.78333	44.4
3.80000	44.4
3.81667	44.5
3.83333	44.5
3.85000	44.4
3.86667	44.3
3.88333	44.3
3.90000	44.4
3.91667	44.4
3.93333	44.4
3.95000	44.4
3.96667	44.4
3.98333	44.4
4.00000	44.3
4.01667	44.4
4.03333	44.3
4.05000	44.4
4.06667	44.3
4.08333	44.4
4.10000	44.3
4.11667	44.4
4.13333	44.4
4.15000	44.4
4.16667	44.4
4.18333	44.5
4.20000	44.3
4.21667	44.4
4.23333	44.4
4.25000	44.3
4.26667	44.4
4.28333	44.3
4.30000	44.4
4.31667	44.3
4.33333	44.3
4.35000	44.4
4.36667	44.4
4.38333	44.3
4.40000	44.3
4.41667	44.4
4.43333	44.4
4.45000	44.3
4.46667	44.3
4.48333	44.4
4.50000	44.4
4.51667	44.4
4.53333	44.3
4.55000	44.4
4.56667	44.4
4.58333	44.1
4.60000	44.3
4.61667	44.1
4.63333	44.3
4.65000	44.4
4.66667	44.3
4.68333	44.3
4.70000	44.3
4.71667	44.4
4.73333	44.3
4.75000	44.3
4.76667	44.3
4.78333	44.3
4.80000	44.3
4.81667	44.3
4.83333	44.4
4.85000	44.3
4.86667	44.3
4.88333	44.4
4.90000	44.3
4.91667	44.3
4.93333	44.3
4.95000	44.1
4.96667	44.3
4.98333	44.3
5.00000	44.3
5.01667	44.4
5.03333	44.4
5.05000	44.3
5.06667	44.4
5.08333	44.3
5.10000	44.4
5.11667	44.3
5.13333	44.3
5.15000	44.3
5.16667	44.3
5.18333	44.3
5.20000	44.3
5.21667	44.3
5.23333	44.1
5.25000	44.3
5.26667	44.4
5.28333	44.3
5.30000	44.3
5.31667	44.1
5.33333	44.3
5.35000	44.1
5.36667	44.3
5.38333	44.3
5.40000	44.1
5.41667	44.1
5.43333	44.3
5.45000	44.3
5.46667	44.1
5.48333	44.3
5.50000	44.3
5.51667	44.1
5.53333	44.1
5.55000	44.1
5.56667	44.1
5.58333	44.1
5.60000	44.3
5.61667	44.3
5.63333	44.3
5.65000	44.3
5.66667	44.1
5.68333	44.1
5.70000	44.1
5.71667	44.1
5.73333	44.1
5.75000	44.3
5.76667	44.3
5.78333	44.1
5.80000	44.1
5.81667	44.1
5.83333	44.1
5.85000	44.3
5.86667	44.1
5.88333	44.1
5.90000	44.3
5.91667	44.1
5.93333	44.1
5.95000	44.3
5.96667	44.1
5.98333	44.1
6.00000	44.1
6.01667	44.1
6.03333	44.3
6.05000	44.1
6.06667	44.1
6.08333	44.1
6.10000	44.1
6.11667	44.1
6.13333	44.1
6.15000	44.1
6.16667	44.1
6.18333	44.1
6.20000	44.1
6.21667	44.1
6.23333	44.1
6.25000	44.3
6.26667	44.1
6.28333	44.1
6.30000	44.0
6.31667	44.1
6.33333	44.0
6.35000	44.1
6.36667	44.1
6.38333	44.1
6.40000	44.1
6.41667	44.3
6.43333	44.3
6.45000	44.1
6.46667	44.1
6.48333	44.3
6.50000	44.1
6.51667	44.3
6.53333	44.1
6.55000	44.1
6.56667	44.1
6.58333	44.1
6.60000	44.1
6.61667	44.1
6.63333	44.3
6.65000	44.3
6.66667	44.1
6.68333	44.3
6.70000	44.1
6.71667	44.1
6.73333	44.0
6.75000	44.1
6.76667	44.0
6.78333	44.1
6.80000	44.0
6.81667	44.0
6.83333	44.3
6.85000	44.1
6.86667	44.1
6.88333	44.1
6.90000	44.1
6.91667	44.1
6.93333	44.1
6.95000	44.1
6.96667	44.1
6.98333	44.1
7.00000	44.3
7.01667	44.1
7.03333	44.1
7.05000	44.0
7.06667	44.3
7.08333	44.0
7.10000	44.3
7.11667	44.1
7.13333	44.1
7.15000	44.1
7.16667	44.3
7.18333	44.1
7.20000	44.3
7.21667	44.1
7.23333	44.1
7.25000	44.1
7.26667	44.1
7.28333	44.0
7.30000	44.1
7.31667	44.3
7.33333	44.3
7.35000	44.1
7.36667	44.3
7.38333	44.1
7.40000	44.1
7.41667	44.3
7.43333	44.0
7.45000	44.1
7.46667	44.3
7.48333	44.3
7.50000	44.1
7.51667	44.1
7.53333	44.1
7.55000	44.1
7.56667	44.1
7.58333	44.1
7.60000	44.1
7.61667	44.0
7.63333	44.0
7.65000	44.1
7.66667	44.0
7.68333	44.1
7.70000	44.0
7.71667	44.1
7.73333	44.0
7.75000	44.0
7.76667	43.9
7.78333	44.0
7.80000	44.0
7.81667	44.1
7.83333	44.0
7.85000	44.1
7.86667	44.1
7.88333	44.0
7.90000	44.1
7.91667	44.0
7.93333	44.0
7.95000	44.0
7.96667	44.1
7.98333	44.1
8.00000	44.1
8.01667	44.0
8.03333	44.3
8.05000	44.0
8.06667	44.0
8.08333	44.1
8.10000	44.0
8.11667	44.1
8.13333	44.0
8.15000	44.0
8.16667	44.0
8.18333	44.0
8.20000	44.0
8.21667	44.1
8.23333	44.0
8.25000	44.1
8.26667	44.0
8.28333	43.9
8.30000	44.0
8.31667	44.0
8.33333	44.0
8.35000	43.9
8.36667	44.1
8.38333	43.9
8.40000	44.1
8.41667	44.0
8.43333	44.0
8.45000	44.0
8.46667	44.0
8.48333	43.9
8.50000	43.9
8.51667	43.9
8.53333	44.0
8.55000	43.8
8.56667	43.9
8.58333	43.9
8.60000	43.8
8.61667	43.9
8.63333	43.9
8.65000	43.9
8.66667	43.9
8.68333	43.9
8.70000	44.0
8.71667	43.8
8.73333	43.9
8.75000	43.9
8.76667	43.8
8.78333	43.9
8.80000	43.9
8.81667	43.9
8.83333	43.8
8.85000	43.9
8.86667	43.8
8.88333	43.8
8.90000	43.9
8.91667	44.0
8.93333	43.9
8.95000	43.8
8.96667	43.8
8.98333	43.9
9.00000	43.8
9.01667	43.9
9.03333	43.6
9.05000	43.8
9.06667	43.9
9.08333	43.9
9.10000	43.8
9.11667	43.9
9.13333	43.8
9.15000	43.8
9.16667	43.6
9.18333	43.8
9.20000	43.9
9.21667	43.6
9.23333	43.9
9.25000	43.9
9.26667	43.8
9.28333	43.8
9.30000	43.9
9.31667	43.6
9.33333	43.9
9.35000	43.9
9.36667	43.8
9.38333	43.8
9.40000	43.8
9.41667	43.8
9.43333	43.8
9.45000	43.8
9.46667	43.9
9.48333	43.8
9.50000	43.6
9.51667	43.9
9.53333	43.6
9.55000	43.9
9.56667	43.9
9.58333	43.9
9.60000	43.6
9.61667	43.9
9.63333	43.9
9.65000	43.8
9.66667	43.8
9.68333	43.9
9.70000	43.9
9.71667	43.8
9.73333	43.8
9.75000	43.8
9.76667	43.8
9.78333	43.9
9.80000	43.8
9.81667	43.8
9.83333	43.8
9.85000	43.9
9.86667	43.8
9.88333	43.8
9.90000	43.8
9.91667	43.8
9.93333	43.8
9.95000	43.9
9.96667	43.8
9.98333	43.6
10.00000	43.8
10.01667	43.9
10.03333	43.9
10.05000	43.8
10.06667	43.6
10.08333	43.8
10.10000	43.9
10.11667	43.9
10.13333	43.9
10.15000	43.9
10.16667	43.9
10.18333	43.8
10.20000	43.8
10.21667	43.8
10.23333	43.8
10.25000	43.8
10.26667	43.8
10.28333	43.9
10.30000	43.8
10.31667	43.8
10.33333	43.9
10.35000	43.8
10.36667	43.9
10.38333	43.9
10.40000	43.9
10.41667	43.8
10.43333	43.8
10.45000	43.8
10.46667	43.8
10.48333	43.9
10.50000	43.9
10.51667	43.9
10.53333	43.9
10.55000	43.9
10.56667	43.8
10.58333	43.9
10.60000	43.9
10.61667	43.8
10.63333	43.9
10.65000	43.8
10.66667	43.8
10.68333	43.8
10.70000	43.8
10.71667	43.9
10.73333	43.9
10.75000	43.9
10.76667	43.9
10.78333	43.9
10.80000	43.9
10.81667	43.9
10.83333	43.8
10.85000	43.9
10.86667	43.8
10.88333	43.8
10.90000	43.9
10.91667	43.9
10.93333	43.8
10.95000	44.0
10.96667	43.9
10.98333	43.9
11.00000	44.0

[LC Status Trace(UV Cell Temp.)]
Interval(msec)	1000
# of Points	661
Start Time(min)	0.000
End Time(min)	11.000
Intensity Units	C
Intensity Multiplier	1
R.Time (min)	Intensity
0.00000	39.98
0.01667	39.98
0.03333	39.98
0.05000	39.99
0.06667	40.00
0.08333	40.00
0.10000	40.00
0.11667	39.99
0.13333	40.00
0.15000	40.00
0.16667	39.96
0.18333	39.98
0.20000	40.00
0.21667	40.02
0.23333	40.03
0.25000	40.00
0.26667	40.02
0.28333	40.02
0.30000	39.99
0.31667	40.00
0.33333	39.96
0.35000	40.00
0.36667	40.00
0.38333	40.00
0.40000	39.99
0.41667	40.00
0.43333	40.00
0.45000	40.00
0.46667	40.00
0.48333	40.02
0.50000	40.00
0.51667	39.96
0.53333	39.93
0.55000	39.93
0.56667	39.93
0.58333	39.98
0.60000	39.97
0.61667	39.93
0.63333	39.95
0.65000	39.96
0.66667	39.95
0.68333	39.93
0.70000	39.96
0.71667	39.98
0.73333	39.98
0.75000	39.96
0.76667	39.93
0.78333	39.93
0.80000	39.93
0.81667	39.93
0.83333	39.95
0.85000	39.93
0.86667	39.93
0.88333	39.93
0.90000	39.97
0.91667	39.98
0.93333	40.00
0.95000	40.05
0.96667	40.03
0.98333	40.02
1.00000	40.02
1.01667	40.00
1.03333	40.00
1.05000	40.00
1.06667	40.00
1.08333	40.00
1.10000	39.99
1.11667	40.00
1.13333	40.00
1.15000	39.99
1.16667	40.00
1.18333	40.00
1.20000	40.00
1.21667	40.02
1.23333	40.02
1.25000	40.00
1.26667	40.00
1.28333	40.00
1.30000	40.00
1.31667	39.99
1.33333	39.99
1.35000	40.03
1.36667	40.00
1.38333	40.00
1.40000	40.03
1.41667	40.00
1.43333	40.00
1.45000	40.00
1.46667	40.00
1.48333	40.02
1.50000	40.05
1.51667	40.00
1.53333	39.95
1.55000	39.93
1.56667	39.95
1.58333	39.96
1.60000	40.00
1.61667	40.00
1.63333	40.00
1.65000	40.00
1.66667	40.00
1.68333	40.00
1.70000	40.00
1.71667	39.99
1.73333	39.99
1.75000	40.00
1.76667	40.00
1.78333	40.00
1.80000	40.00
1.81667	40.00
1.83333	40.00
1.85000	40.02
1.86667	40.00
1.88333	40.00
1.90000	40.00
1.91667	39.99
1.93333	40.00
1.95000	40.00
1.96667	39.99
1.98333	40.00
2.00000	40.00
2.01667	39.99
2.03333	40.00
2.05000	40.00
2.06667	40.00
2.08333	40.00
2.10000	39.99
2.11667	39.99
2.13333	40.00
2.15000	40.00
2.16667	40.00
2.18333	40.00
2.20000	40.02
2.21667	40.00
2.23333	40.00
2.25000	40.00
2.26667	40.00
2.28333	40.00
2.30000	40.00
2.31667	40.00
2.33333	40.03
2.35000	40.03
2.36667	40.00
2.38333	40.00
2.40000	40.00
2.41667	40.00
2.43333	40.00
2.45000	40.00
2.46667	40.00
2.48333	40.00
2.50000	40.00
2.51667	40.00
2.53333	40.00
2.55000	40.05
2.56667	40.00
2.58333	40.00
2.60000	40.00
2.61667	40.00
2.63333	39.99
2.65000	39.95
2.66667	40.00
2.68333	40.00
2.70000	39.99
2.71667	40.00
2.73333	40.00
2.75000	40.05
2.76667	40.02
2.78333	40.00
2.80000	40.00
2.81667	40.02
2.83333	40.00
2.85000	40.00
2.86667	40.00
2.88333	39.99
2.90000	39.99
2.91667	40.00
2.93333	40.00
2.95000	40.00
2.96667	40.00
2.98333	40.00
3.00000	40.00
3.01667	40.03
3.03333	40.00
3.05000	40.00
3.06667	40.00
3.08333	40.00
3.10000	39.99
3.11667	39.99
3.13333	40.00
3.15000	40.02
3.16667	40.02
3.18333	40.00
3.20000	40.00
3.21667	40.00
3.23333	39.99
3.25000	39.99
3.26667	40.00
3.28333	40.00
3.30000	40.00
3.31667	40.00
3.33333	40.00
3.35000	40.03
3.36667	40.02
3.38333	40.00
3.40000	40.00
3.41667	40.00
3.43333	40.00
3.45000	40.00
3.46667	40.00
3.48333	40.00
3.50000	39.99
3.51667	39.99
3.53333	40.00
3.55000	40.00
3.56667	40.00
3.58333	40.00
3.60000	40.02
3.61667	39.99
3.63333	39.99
3.65000	39.96
3.66667	39.93
3.68333	39.93
3.70000	39.91
3.71667	40.00
3.73333	40.00
3.75000	40.00
3.76667	40.00
3.78333	40.00
3.80000	40.00
3.81667	39.99
3.83333	40.00
3.85000	40.00
3.86667	39.99
3.88333	40.00
3.90000	40.00
3.91667	40.05
3.93333	40.00
3.95000	39.99
3.96667	39.97
3.98333	39.93
4.00000	40.00
4.01667	40.02
4.03333	40.02
4.05000	39.99
4.06667	40.00
4.08333	39.99
4.10000	40.00
4.11667	40.02
4.13333	40.02
4.15000	40.00
4.16667	39.99
4.18333	39.99
4.20000	39.99
4.21667	40.00
4.23333	40.00
4.25000	40.00
4.26667	40.00
4.28333	40.00
4.30000	40.00
4.31667	39.98
4.33333	40.00
4.35000	40.00
4.36667	40.00
4.38333	40.00
4.40000	40.00
4.41667	40.00
4.43333	39.99
4.45000	40.00
4.46667	40.00
4.48333	39.99
4.50000	40.00
4.51667	39.96
4.53333	39.96
4.55000	40.00
4.56667	40.02
4.58333	40.00
4.60000	40.02
4.61667	39.99
4.63333	39.98
4.65000	40.00
4.66667	40.00
4.68333	40.00
4.70000	40.00
4.71667	40.00
4.73333	40.00
4.75000	40.00
4.76667	40.00
4.78333	40.00
4.80000	40.00
4.81667	39.99
4.83333	39.99
4.85000	39.98
4.86667	39.93
4.88333	39.93
4.90000	39.93
4.91667	40.00
4.93333	40.00
4.95000	39.99
4.96667	40.00
4.98333	40.00
5.00000	40.00
5.01667	40.00
5.03333	40.00
5.05000	40.00
5.06667	39.99
5.08333	40.00
5.10000	40.00
5.11667	40.03
5.13333	40.05
5.15000	39.99
5.16667	40.00
5.18333	40.00
5.20000	39.99
5.21667	39.95
5.23333	39.93
5.25000	39.93
5.26667	39.99
5.28333	40.05
5.30000	40.00
5.31667	40.00
5.33333	40.00
5.35000	40.00
5.36667	40.00
5.38333	40.00
5.40000	40.00
5.41667	40.00
5.43333	40.00
5.45000	40.00
5.46667	40.00
5.48333	40.00
5.50000	40.00
5.51667	40.00
5.53333	39.99
5.55000	40.02
5.56667	40.00
5.58333	40.00
5.60000	40.00
5.61667	40.00
5.63333	40.00
5.65000	40.00
5.66667	39.98
5.68333	39.93
5.70000	39.95
5.71667	39.93
5.73333	39.93
5.75000	39.95
5.76667	39.97
5.78333	39.99
5.80000	40.00
5.81667	40.00
5.83333	40.00
5.85000	40.00
5.86667	39.99
5.88333	40.00
5.90000	40.00
5.91667	40.00
5.93333	40.00
5.95000	40.02
5.96667	40.02
5.98333	40.00
6.00000	40.00
6.01667	40.00
6.03333	40.02
6.05000	40.02
6.06667	40.00
6.08333	39.99
6.10000	39.99
6.11667	40.00
6.13333	39.96
6.15000	40.00
6.16667	40.00
6.18333	40.00
6.20000	40.00
6.21667	40.00
6.23333	40.00
6.25000	39.99
6.26667	39.99
6.28333	39.99
6.30000	39.99
6.31667	39.99
6.33333	40.00
6.35000	40.00
6.36667	40.00
6.38333	40.00
6.40000	40.00
6.41667	39.96
6.43333	39.96
6.45000	39.99
6.46667	40.00
6.48333	40.00
6.50000	40.06
6.51667	40.03
6.53333	40.02
6.55000	40.02
6.56667	40.00
6.58333	40.00
6.60000	40.00
6.61667	40.00
6.63333	40.00
6.65000	40.02
6.66667	40.00
6.68333	40.00
6.70000	40.00
6.71667	40.00
6.73333	39.99
6.75000	39.99
6.76667	40.00
6.78333	40.00
6.80000	40.00
6.81667	40.00
6.83333	40.00
6.85000	40.00
6.86667	39.99
6.88333	39.99
6.90000	40.00
6.91667	40.03
6.93333	40.00
6.95000	39.99
6.96667	39.98
6.98333	39.98
7.00000	40.00
7.01667	39.96
7.03333	39.95
7.05000	39.96
7.06667	39.93
7.08333	39.93
7.10000	39.93
7.11667	39.93
7.13333	39.93
7.15000	39.95
7.16667	39.93
7.18333	39.91
7.20000	39.97
7.21667	39.97
7.23333	40.00
7.25000	39.99
7.26667	40.00
7.28333	39.99
7.30000	40.00
7.31667	40.00
7.33333	40.00
7.35000	40.00
7.36667	40.05
7.38333	40.00
7.40000	40.00
7.41667	39.99
7.43333	40.00
7.45000	40.00
7.46667	40.00
7.48333	40.00
7.50000	40.00
7.51667	39.99
7.53333	40.00
7.55000	39.93
7.56667	39.95
7.58333	39.98
7.60000	39.99
7.61667	40.00
7.63333	40.00
7.65000	40.00
7.66667	40.00
7.68333	40.00
7.70000	40.00
7.71667	40.00
7.73333	39.99
7.75000	39.98
7.76667	39.95
7.78333	39.96
7.80000	39.96
7.81667	39.98
7.83333	39.97
7.85000	39.97
7.86667	40.00
7.88333	40.00
7.90000	40.00
7.91667	40.00
7.93333	40.00
7.95000	40.00
7.96667	39.99
7.98333	39.98
8.00000	40.00
8.01667	39.98
8.03333	39.93
8.05000	39.99
8.06667	40.00
8.08333	39.99
8.10000	40.00
8.11667	40.00
8.13333	40.02
8.15000	39.97
8.16667	39.95
8.18333	39.99
8.20000	40.00
8.21667	40.00
8.23333	40.02
8.25000	40.00
8.26667	40.00
8.28333	40.00
8.30000	40.00
8.31667	40.00
8.33333	40.00
8.35000	40.00
8.36667	40.00
8.38333	40.00
8.40000	40.00
8.41667	40.00
8.43333	40.00
8.45000	40.00
8.46667	39.99
8.48333	39.95
8.50000	39.95
8.51667	39.99
8.53333	40.00
8.55000	40.00
8.56667	40.00
8.58333	40.00
8.60000	40.00
8.61667	40.00
8.63333	40.00
8.65000	40.00
8.66667	40.02
8.68333	40.03
8.70000	39.99
8.71667	39.93
8.73333	39.93
8.75000	39.99
8.76667	40.00
8.78333	40.00
8.80000	40.00
8.81667	40.00
8.83333	40.00
8.85000	39.99
8.86667	40.00
8.88333	40.00
8.90000	40.00
8.91667	40.00
8.93333	40.00
8.95000	39.97
8.96667	39.96
8.98333	39.99
9.00000	40.00
9.01667	40.00
9.03333	40.00
9.05000	40.00
9.06667	40.00
9.08333	40.03
9.10000	40.00
9.11667	40.00
9.13333	40.00
9.15000	40.00
9.16667	40.00
9.18333	39.99
9.20000	39.99
9.21667	40.00
9.23333	40.00
9.25000	39.99
9.26667	40.00
9.28333	40.00
9.30000	39.97
9.31667	39.97
9.33333	40.00
9.35000	40.02
9.36667	39.99
9.38333	39.99
9.40000	40.00
9.41667	40.00
9.43333	40.00
9.45000	40.00
9.46667	40.00
9.48333	39.98
9.50000	40.00
9.51667	40.00
9.53333	40.00
9.55000	40.00
9.56667	40.00
9.58333	40.00
9.60000	39.99
9.61667	40.00
9.63333	40.00
9.65000	40.00
9.66667	40.00
9.68333	40.00
9.70000	40.00
9.71667	40.00
9.73333	40.00
9.75000	40.00
9.76667	40.00
9.78333	40.00
9.80000	40.00
9.81667	40.00
9.83333	40.00
9.85000	40.00
9.86667	40.00
9.88333	40.00
9.90000	40.00
9.91667	40.00
9.93333	40.00
9.95000	40.00
9.96667	39.97
9.98333	39.99
10.00000	40.00
10.01667	40.02
10.03333	40.05
10.05000	40.00
10.06667	39.99
10.08333	39.99
10.10000	40.00
10.11667	40.00
10.13333	39.99
10.15000	40.00
10.16667	39.99
10.18333	39.97
10.20000	39.99
10.21667	40.00
10.23333	40.00
10.25000	40.00
10.26667	39.99
10.28333	39.99
10.30000	39.93
10.31667	39.93
10.33333	39.99
10.35000	40.00
10.36667	40.00
10.38333	40.00
10.40000	40.00
10.41667	39.95
10.43333	40.00
10.45000	40.00
10.46667	40.00
10.48333	40.02
10.50000	40.02
10.51667	40.00
10.53333	39.97
10.55000	39.99
10.56667	40.00
10.58333	40.00
10.60000	40.00
10.61667	40.03
10.63333	40.00
10.65000	39.98
10.66667	40.00
10.68333	40.00
10.70000	40.00
10.71667	40.00
10.73333	40.00
10.75000	39.99
10.76667	39.97
10.78333	39.96
10.80000	39.98
10.81667	40.00
10.83333	40.00
10.85000	40.02
10.86667	40.00
10.88333	40.00
10.90000	40.00
10.91667	40.00
10.93333	40.00
10.95000	40.02
10.96667	39.98
10.98333	39.95
11.00000	39.93

[LC Status Trace(RF B Cell Temp.)]
Interval(msec)	1000
# of Points	661
Start Time(min)	0.000
End Time(min)	11.000
Intensity Units	C
Intensity Multiplier	1
R.Time (min)	Intensity
0.00000	30.04
0.01667	30.04
0.03333	30.04
0.05000	30.04
0.06667	30.04
0.08333	30.04
0.10000	30.04
0.11667	30.04
0.13333	30.04
0.15000	30.04
0.16667	30.04
0.18333	30.04
0.20000	30.04
0.21667	30.04
0.23333	30.04
0.25000	30.04
0.26667	30.04
0.28333	30.04
0.30000	30.04
0.31667	30.04
0.33333	30.04
0.35000	30.04
0.36667	30.04
0.38333	30.04
0.40000	30.04
0.41667	30.04
0.43333	30.04
0.45000	30.04
0.46667	30.04
0.48333	30.04
0.50000	30.04
0.51667	30.04
0.53333	30.04
0.55000	30.04
0.56667	30.04
0.58333	30.04
0.60000	30.04
0.61667	30.04
0.63333	30.04
0.65000	30.04
0.66667	30.04
0.68333	30.04
0.70000	30.04
0.71667	30.04
0.73333	30.04
0.75000	30.04
0.76667	30.04
0.78333	30.04
0.80000	30.04
0.81667	30.04
0.83333	30.04
0.85000	30.04
0.86667	30.04
0.88333	30.04
0.90000	30.04
0.91667	30.04
0.93333	30.04
0.95000	30.04
0.96667	30.04
0.98333	30.04
1.00000	30.04
1.01667	30.04
1.03333	30.04
1.05000	30.05
1.06667	30.05
1.08333	30.05
1.10000	30.05
1.11667	30.05
1.13333	30.05
1.15000	30.05
1.16667	30.05
1.18333	30.05
1.20000	30.05
1.21667	30.05
1.23333	30.05
1.25000	30.05
1.26667	30.05
1.28333	30.05
1.30000	30.05
1.31667	30.05
1.33333	30.05
1.35000	30.05
1.36667	30.05
1.38333	30.05
1.40000	30.05
1.41667	30.05
1.43333	30.05
1.45000	30.05
1.46667	30.05
1.48333	30.05
1.50000	30.05
1.51667	30.05
1.53333	30.05
1.55000	30.05
1.56667	30.05
1.58333	30.05
1.60000	30.05
1.61667	30.05
1.63333	30.05
1.65000	30.05
1.66667	30.05
1.68333	30.05
1.70000	30.05
1.71667	30.05
1.73333	30.05
1.75000	30.05
1.76667	30.05
1.78333	30.05
1.80000	30.05
1.81667	30.05
1.83333	30.05
1.85000	30.05
1.86667	30.05
1.88333	30.05
1.90000	30.05
1.91667	30.05
1.93333	30.05
1.95000	30.05
1.96667	30.05
1.98333	30.05
2.00000	30.05
2.01667	30.05
2.03333	30.05
2.05000	30.05
2.06667	30.05
2.08333	30.05
2.10000	30.05
2.11667	30.05
2.13333	30.05
2.15000	30.05
2.16667	30.05
2.18333	30.05
2.20000	30.05
2.21667	30.05
2.23333	30.05
2.25000	30.05
2.26667	30.05
2.28333	30.05
2.30000	30.05
2.31667	30.05
2.33333	30.05
2.35000	30.05
2.36667	30.05
2.38333	30.05
2.40000	30.05
2.41667	30.05
2.43333	30.06
2.45000	30.06
2.46667	30.06
2.48333	30.06
2.50000	30.06
2.51667	30.06
2.53333	30.06
2.55000	30.06
2.56667	30.06
2.58333	30.06
2.60000	30.06
2.61667	30.06
2.63333	30.06
2.65000	30.06
2.66667	30.06
2.68333	30.06
2.70000	30.06
2.71667	30.06
2.73333	30.06
2.75000	30.06
2.76667	30.06
2.78333	30.06
2.80000	30.06
2.81667	30.06
2.83333	30.06
2.85000	30.06
2.86667	30.06
2.88333	30.06
2.90000	30.06
2.91667	30.06
2.93333	30.06
2.95000	30.06
2.96667	30.06
2.98333	30.06
3.00000	30.06
3.01667	30.06
3.03333	30.06
3.05000	30.06
3.06667	30.06
3.08333	30.06
3.10000	30.06
3.11667	30.06
3.13333	30.06
3.15000	30.06
3.16667	30.06
3.18333	30.06
3.20000	30.06
3.21667	30.06
3.23333	30.06
3.25000	30.06
3.26667	30.06
3.28333	30.06
3.30000	30.06
3.31667	30.06
3.33333	30.06
3.35000	30.06
3.36667	30.06
3.38333	30.06
3.40000	30.07
3.41667	30.07
3.43333	30.07
3.45000	30.07
3.46667	30.07
3.48333	30.07
3.50000	30.07
3.51667	30.07
3.53333	30.07
3.55000	30.07
3.56667	30.07
3.58333	30.07
3.60000	30.07
3.61667	30.07
3.63333	30.07
3.65000	30.07
3.66667	30.07
3.68333	30.07
3.70000	30.07
3.71667	30.07
3.73333	30.07
3.75000	30.07
3.76667	30.07
3.78333	30.07
3.80000	30.07
3.81667	30.07
3.83333	30.07
3.85000	30.07
3.86667	30.07
3.88333	30.07
3.90000	30.07
3.91667	30.07
3.93333	30.07
3.95000	30.07
3.96667	30.07
3.98333	30.07
4.00000	30.07
4.01667	30.07
4.03333	30.07
4.05000	30.07
4.06667	30.07
4.08333	30.07
4.10000	30.07
4.11667	30.07
4.13333	30.07
4.15000	30.07
4.16667	30.07
4.18333	30.07
4.20000	30.07
4.21667	30.07
4.23333	30.07
4.25000	30.07
4.26667	30.07
4.28333	30.07
4.30000	30.07
4.31667	30.07
4.33333	30.07
4.35000	30.07
4.36667	30.07
4.38333	30.07
4.40000	30.07
4.41667	30.07
4.43333	30.07
4.45000	30.07
4.46667	30.07
4.48333	30.06
4.50000	30.06
4.51667	30.06
4.53333	30.06
4.55000	30.06
4.56667	30.06
4.58333	30.06
4.60000	30.06
4.61667	30.06
4.63333	30.06
4.65000	30.06
4.66667	30.06
4.68333	30.06
4.70000	30.06
4.71667	30.06
4.73333	30.06
4.75000	30.06
4.76667	30.06
4.78333	30.06
4.80000	30.06
4.81667	30.06
4.83333	30.06
4.85000	30.06
4.86667	30.06
4.88333	30.06
4.90000	30.06
4.91667	30.06
4.93333	30.06
4.95000	30.06
4.96667	30.06
4.98333	30.06
5.00000	30.06
5.01667	30.06
5.03333	30.06
5.05000	30.06
5.06667	30.06
5.08333	30.06
5.10000	30.06
5.11667	30.06
5.13333	30.06
5.15000	30.06
5.16667	30.06
5.18333	30.06
5.20000	30.06
5.21667	30.06
5.23333	30.06
5.25000	30.06
5.26667	30.06
5.28333	30.06
5.30000	30.06
5.31667	30.06
5.33333	30.06
5.35000	30.06
5.36667	30.06
5.38333	30.06
5.40000	30.06
5.41667	30.06
5.43333	30.06
5.45000	30.06
5.46667	30.06
5.48333	30.06
5.50000	30.06
5.51667	30.06
5.53333	30.06
5.55000	30.06
5.56667	30.06
5.58333	30.06
5.60000	30.06
5.61667	30.06
5.63333	30.06
5.65000	30.06
5.66667	30.06
5.68333	30.06
5.70000	30.06
5.71667	30.06
5.73333	30.06
5.75000	30.06
5.76667	30.06
5.78333	30.06
5.80000	30.06
5.81667	30.06
5.83333	30.05
5.85000	30.05
5.86667	30.05
5.88333	30.05
5.90000	30.05
5.91667	30.05
5.93333	30.05
5.95000	30.05
5.96667	30.05
5.98333	30.05
6.00000	30.05
6.01667	30.05
6.03333	30.05
6.05000	30.05
6.06667	30.05
6.08333	30.05
6.10000	30.05
6.11667	30.05
6.13333	30.05
6.15000	30.05
6.16667	30.05
6.18333	30.05
6.20000	30.05
6.21667	30.05
6.23333	30.05
6.25000	30.05
6.26667	30.05
6.28333	30.05
6.30000	30.05
6.31667	30.05
6.33333	30.05
6.35000	30.05
6.36667	30.05
6.38333	30.05
6.40000	30.05
6.41667	30.05
6.43333	30.05
6.45000	30.05
6.46667	30.05
6.48333	30.05
6.50000	30.05
6.51667	30.05
6.53333	30.05
6.55000	30.05
6.56667	30.05
6.58333	30.05
6.60000	30.05
6.61667	30.05
6.63333	30.05
6.65000	30.05
6.66667	30.05
6.68333	30.05
6.70000	30.05
6.71667	30.05
6.73333	30.05
6.75000	30.05
6.76667	30.05
6.78333	30.05
6.80000	30.05
6.81667	30.05
6.83333	30.05
6.85000	30.05
6.86667	30.06
6.88333	30.06
6.90000	30.06
6.91667	30.06
6.93333	30.06
6.95000	30.06
6.96667	30.06
6.98333	30.06
7.00000	30.06
7.01667	30.06
7.03333	30.06
7.05000	30.06
7.06667	30.06
7.08333	30.06
7.10000	30.06
7.11667	30.06
7.13333	30.06
7.15000	30.06
7.16667	30.06
7.18333	30.06
7.20000	30.06
7.21667	30.06
7.23333	30.06
7.25000	30.06
7.26667	30.06
7.28333	30.06
7.30000	30.06
7.31667	30.06
7.33333	30.06
7.35000	30.06
7.36667	30.06
7.38333	30.06
7.40000	30.06
7.41667	30.06
7.43333	30.06
7.45000	30.06
7.46667	30.06
7.48333	30.06
7.50000	30.06
7.51667	30.06
7.53333	30.06
7.55000	30.06
7.56667	30.06
7.58333	30.06
7.60000	30.06
7.61667	30.06
7.63333	30.06
7.65000	30.06
7.66667	30.06
7.68333	30.06
7.70000	30.06
7.71667	30.06
7.73333	30.06
7.75000	30.06
7.76667	30.06
7.78333	30.07
7.80000	30.07
7.81667	30.07
7.83333	30.07
7.85000	30.07
7.86667	30.07
7.88333	30.07
7.90000	30.07
7.91667	30.07
7.93333	30.07
7.95000	30.07
7.96667	30.07
7.98333	30.07
8.00000	30.07
8.01667	30.07
8.03333	30.07
8.05000	30.07
8.06667	30.07
8.08333	30.07
8.10000	30.07
8.11667	30.07
8.13333	30.07
8.15000	30.07
8.16667	30.07
8.18333	30.07
8.20000	30.07
8.21667	30.07
8.23333	30.07
8.25000	30.07
8.26667	30.07
8.28333	30.07
8.30000	30.07
8.31667	30.07
8.33333	30.07
8.35000	30.07
8.36667	30.07
8.38333	30.07
8.40000	30.07
8.41667	30.07
8.43333	30.07
8.45000	30.07
8.46667	30.07
8.48333	30.07
8.50000	30.08
8.51667	30.08
8.53333	30.08
8.55000	30.08
8.56667	30.08
8.58333	30.08
8.60000	30.08
8.61667	30.08
8.63333	30.08
8.65000	30.08
8.66667	30.08
8.68333	30.08
8.70000	30.08
8.71667	30.08
8.73333	30.08
8.75000	30.08
8.76667	30.08
8.78333	30.08
8.80000	30.08
8.81667	30.08
8.83333	30.08
8.85000	30.08
8.86667	30.08
8.88333	30.08
8.90000	30.08
8.91667	30.08
8.93333	30.08
8.95000	30.08
8.96667	30.08
8.98333	30.08
9.00000	30.08
9.01667	30.08
9.03333	30.08
9.05000	30.08
9.06667	30.08
9.08333	30.08
9.10000	30.08
9.11667	30.08
9.13333	30.09
9.15000	30.09
9.16667	30.09
9.18333	30.09
9.20000	30.09
9.21667	30.09
9.23333	30.09
9.25000	30.09
9.26667	30.09
9.28333	30.09
9.30000	30.09
9.31667	30.09
9.33333	30.09
9.35000	30.09
9.36667	30.09
9.38333	30.09
9.40000	30.09
9.41667	30.09
9.43333	30.09
9.45000	30.09
9.46667	30.09
9.48333	30.09
9.50000	30.09
9.51667	30.08
9.53333	30.08
9.55000	30.08
9.56667	30.08
9.58333	30.08
9.60000	30.08
9.61667	30.08
9.63333	30.08
9.65000	30.08
9.66667	30.08
9.68333	30.08
9.70000	30.08
9.71667	30.08
9.73333	30.08
9.75000	30.08
9.76667	30.08
9.78333	30.08
9.80000	30.08
9.81667	30.08
9.83333	30.08
9.85000	30.08
9.86667	30.08
9.88333	30.08
9.90000	30.08
9.91667	30.08
9.93333	30.08
9.95000	30.08
9.96667	30.08
9.98333	30.07
10.00000	30.07
10.01667	30.07
10.03333	30.07
10.05000	30.07
10.06667	30.07
10.08333	30.07
10.10000	30.07
10.11667	30.07
10.13333	30.07
10.15000	30.07
10.16667	30.07
10.18333	30.07
10.20000	30.07
10.21667	30.07
10.23333	30.06
10.25000	30.06
10.26667	30.06
10.28333	30.06
10.30000	30.06
10.31667	30.06
10.33333	30.06
10.35000	30.06
10.36667	30.06
10.38333	30.06
10.40000	30.06
10.41667	30.06
10.43333	30.05
10.45000	30.05
10.46667	30.05
10.48333	30.05
10.50000	30.05
10.51667	30.05
10.53333	30.05
10.55000	30.05
10.56667	30.05
10.58333	30.05
10.60000	30.05
10.61667	30.04
10.63333	30.04
10.65000	30.04
10.66667	30.04
10.68333	30.04
10.70000	30.04
10.71667	30.04
10.73333	30.04
10.75000	30.04
10.76667	30.04
10.78333	30.04
10.80000	30.04
10.81667	30.03
10.83333	30.03
10.85000	30.03
10.86667	30.03
10.88333	30.03
10.90000	30.03
10.91667	30.03
10.93333	30.03
10.95000	30.03
10.96667	30.03
10.98333	30.03
11.00000	30.03

[Fraction Collection Report]
# of Fractions	0

