[Header]
Application Name	LCsolution
Version	1.25
Data File Name	D:\1F-FSEC\140725ayase_166_65_20.lcd
Output Date	2014/07/28
Output Time	11:34:39

[File Information]
Type	Data File
Generated	2014/07/26 8:10:56
Generated by	System Administrator
Modified	2014/07/26 8:22:24
Modified by	System Administrator

[Sample Information]
Operator Name	System Administrator
Acquired	2014/07/26 8:11:21
Sample Type	0:Unknown
Level	0
Sample Name	166_65
Sample ID	
ISTD Amount 1	1
ISTD Amount 2	1
ISTD Amount 3	1
ISTD Amount 4	1
ISTD Amount 5	1
ISTD Amount 6	1
ISTD Amount 7	1
ISTD Amount 8	1
ISTD Amount 9	1
ISTD Amount 10	1
ISTD Amount 11	1
ISTD Amount 12	1
ISTD Amount 13	1
ISTD Amount 14	1
ISTD Amount 15	1
ISTD Amount 16	1
ISTD Amount 17	1
ISTD Amount 18	1
ISTD Amount 19	1
ISTD Amount 20	1
ISTD Amount 21	1
ISTD Amount 22	1
ISTD Amount 23	1
ISTD Amount 24	1
ISTD Amount 25	1
ISTD Amount 26	1
ISTD Amount 27	1
ISTD Amount 28	1
ISTD Amount 29	1
ISTD Amount 30	1
ISTD Amount 31	1
ISTD Amount 32	1
Sample Amount	1
Dilution Factor	1
Vial#	4
Injection Volume	50

[Original Files]
Data File	D:\1F-FSEC\140725ayase_166_65_20.lcd
Method File	D:\1F-FSEC\2-B-P3NTA_miniINC_0.36_11m.lcm
Batch File	D:\1F-FSEC\140725ayase.lcb
Report Format File	C:\LabSolutions\LCsolution\System\Default.lcr
Tuning File	

[File Description]


[Configuration]
# of Detectors	2
Detector ID	Detector A	Detector B
Detector Name	åüèoäÌA	åüèoäÌB
# of Channels	1	1

[Peak Table(Detector A-Ch1)]
# of Peaks	5
Peak#	R.Time	I.Time	F.Time	Area	Height	A/H	Conc.	Mark	ID#	Name	k'	Plate #	Plate Ht.	Tailing	Resolution	Sep.Factor	Conc. %	Norm Conc.
1	1.449	0.825	2.483	1335622	35293	37.8440	0.0000	   			0.000	33	4580.729	1.218	0.000	0.000	0.0000	0.0000
2	3.705	2.983	3.783	3459022	151233	22.8720	0.0000	   			1.557	1	145065.001	0.000	0.290	0.000	0.0000	0.0000
3	4.345	3.783	5.925	13314156	180745	73.6620	0.0000	 V 			1.999	23	6655.762	0.000	0.070	1.284	0.0000	0.0000
4	8.160	5.925	8.808	41021472	875669	46.8460	0.0000	 V 			4.632	1096	136.835	0.000	1.642	2.317	0.0000	0.0000
5	9.460	8.808	10.967	46635826	878863	53.0640	0.0000	 V 			5.529	743	201.794	0.000	1.095	1.194	0.0000	0.0000

[Peak Table(Detector B-Ch1)]
# of Peaks	3
Peak#	R.Time	I.Time	F.Time	Area	Height	A/H	Conc.	Mark	ID#	Name	k'	Plate #	Plate Ht.	Tailing	Resolution	Sep.Factor	Conc. %	Norm Conc.
1	0.035	0.017	0.750	18645	948	19.6580	0.0000	   			0.000	0	3485248.062	17.484	0.000	0.000	0.0000	0.0000
2	4.777	3.442	6.742	16288913	290403	56.0910	0.0000	   			133.939	266	563.336	1.325	5.116	0.000	0.0000	0.0000
3	7.855	6.742	10.967	93963766	1579238	59.4990	0.0000	 V 			220.901	566	264.899	1.989	2.471	1.649	0.0000	0.0000

[Peak Table(PDA-Ch1)]
# of Peaks	0

[Compound Results(Detector A)]
# of IDs	0

[Compound Results(Detector B)]
# of IDs	0

[Compound Results(PDA)]
# of IDs	0

[Group Results(Detector A)]
# of Groups	0

[Group Results(Detector B)]
# of Groups	0

[Group Results(PDA)]
# of Groups	0

[LC Chromatogram(Detector A-Ch1)]
Interval(msec)	500
# of Points	1321
Start Time(min)	0.000
End Time(min)	11.000
Intensity Units	mV
Intensity Multiplier	0.001
Wavelength(nm)	280
R.Time (min)	Intensity
0.00000	-13113
0.00833	-13113
0.01667	-102
0.02500	-303
0.03333	-189
0.04167	-198
0.05000	-370
0.05833	-541
0.06667	-711
0.07500	-882
0.08333	-1056
0.09167	-1231
0.10000	-1407
0.10833	-1584
0.11667	-1763
0.12500	-1942
0.13333	-2121
0.14167	-2301
0.15000	-2482
0.15833	-2658
0.16667	-2832
0.17500	-3002
0.18333	-3170
0.19167	-3336
0.20000	-3501
0.20833	-3665
0.21667	-3828
0.22500	-3990
0.23333	-4147
0.24167	-4302
0.25000	-4454
0.25833	-4607
0.26667	-4759
0.27500	-4909
0.28333	-5058
0.29167	-5207
0.30000	-5356
0.30833	-5503
0.31667	-5650
0.32500	-5799
0.33333	-5950
0.34167	-6101
0.35000	-6248
0.35833	-6393
0.36667	-6537
0.37500	-6681
0.38333	-6822
0.39167	-6960
0.40000	-7095
0.40833	-7229
0.41667	-7363
0.42500	-7496
0.43333	-7626
0.44167	-7756
0.45000	-7886
0.45833	-8012
0.46667	-8137
0.47500	-8263
0.48333	-8388
0.49167	-8510
0.50000	-8632
0.50833	-8754
0.51667	-8875
0.52500	-8994
0.53333	-9115
0.54167	-9236
0.55000	-9355
0.55833	-9473
0.56667	-9592
0.57500	-9710
0.58333	-9825
0.59167	-9938
0.60000	-10050
0.60833	-10160
0.61667	-10269
0.62500	-10376
0.63333	-10482
0.64167	-10586
0.65000	-10690
0.65833	-10790
0.66667	-10887
0.67500	-10982
0.68333	-11073
0.69167	-11161
0.70000	-11246
0.70833	-11327
0.71667	-11403
0.72500	-11478
0.73333	-11550
0.74167	-11615
0.75000	-11675
0.75833	-11731
0.76667	-11783
0.77500	-11828
0.78333	-11869
0.79167	-11904
0.80000	-11933
0.80833	-11954
0.81667	-11967
0.82500	-11974
0.83333	-11971
0.84167	-11958
0.85000	-11936
0.85833	-11904
0.86667	-11863
0.87500	-11810
0.88333	-11745
0.89167	-11667
0.90000	-11578
0.90833	-11477
0.91667	-11359
0.92500	-11226
0.93333	-11077
0.94167	-10910
0.95000	-10724
0.95833	-10522
0.96667	-10301
0.97500	-10061
0.98333	-9801
0.99167	-9519
1.00000	-9216
1.00833	-8892
1.01667	-8545
1.02500	-8175
1.03333	-7783
1.04167	-7368
1.05000	-6928
1.05833	-6465
1.06667	-5978
1.07500	-5467
1.08333	-4934
1.09167	-4379
1.10000	-3802
1.10833	-3203
1.11667	-2584
1.12500	-1944
1.13333	-1286
1.14167	-610
1.15000	83
1.15833	789
1.16667	1508
1.17500	2237
1.18333	2978
1.19167	3726
1.20000	4481
1.20833	5239
1.21667	5999
1.22500	6759
1.23333	7516
1.24167	8268
1.25000	9012
1.25833	9748
1.26667	10470
1.27500	11181
1.28333	11876
1.29167	12552
1.30000	13208
1.30833	13840
1.31667	14447
1.32500	15029
1.33333	15581
1.34167	16106
1.35000	16600
1.35833	17058
1.36667	17482
1.37500	17871
1.38333	18223
1.39167	18538
1.40000	18813
1.40833	19048
1.41667	19243
1.42500	19399
1.43333	19516
1.44167	19590
1.45000	19626
1.45833	19620
1.46667	19573
1.47500	19486
1.48333	19362
1.49167	19201
1.50000	19003
1.50833	18769
1.51667	18501
1.52500	18199
1.53333	17864
1.54167	17498
1.55000	17101
1.55833	16676
1.56667	16226
1.57500	15751
1.58333	15252
1.59167	14729
1.60000	14186
1.60833	13625
1.61667	13047
1.62500	12454
1.63333	11847
1.64167	11226
1.65000	10593
1.65833	9950
1.66667	9299
1.67500	8641
1.68333	7978
1.69167	7312
1.70000	6641
1.70833	5970
1.71667	5297
1.72500	4625
1.73333	3954
1.74167	3286
1.75000	2623
1.75833	1965
1.76667	1313
1.77500	668
1.78333	29
1.79167	-603
1.80000	-1226
1.80833	-1841
1.81667	-2445
1.82500	-3041
1.83333	-3625
1.84167	-4200
1.85000	-4763
1.85833	-5313
1.86667	-5852
1.87500	-6382
1.88333	-6900
1.89167	-7406
1.90000	-7898
1.90833	-8378
1.91667	-8846
1.92500	-9302
1.93333	-9746
1.94167	-10179
1.95000	-10601
1.95833	-11012
1.96667	-11409
1.97500	-11795
1.98333	-12169
1.99167	-12533
2.00000	-12887
2.00833	-13230
2.01667	-13562
2.02500	-13882
2.03333	-14193
2.04167	-14496
2.05000	-14789
2.05833	-15074
2.06667	-15349
2.07500	-15612
2.08333	-15866
2.09167	-16114
2.10000	-16355
2.10833	-16588
2.11667	-16812
2.12500	-17026
2.13333	-17232
2.14167	-17433
2.15000	-17629
2.15833	-17820
2.16667	-18002
2.17500	-18178
2.18333	-18347
2.19167	-18511
2.20000	-18669
2.20833	-18822
2.21667	-18970
2.22500	-19115
2.23333	-19254
2.24167	-19386
2.25000	-19513
2.25833	-19635
2.26667	-19755
2.27500	-19870
2.28333	-19981
2.29167	-20089
2.30000	-20195
2.30833	-20297
2.31667	-20394
2.32500	-20488
2.33333	-20580
2.34167	-20669
2.35000	-20755
2.35833	-20839
2.36667	-20919
2.37500	-20996
2.38333	-21071
2.39167	-21144
2.40000	-21212
2.40833	-21277
2.41667	-21340
2.42500	-21403
2.43333	-21463
2.44167	-21522
2.45000	-21580
2.45833	-21635
2.46667	-21688
2.47500	-21742
2.48333	-21793
2.49167	-21841
2.50000	-21889
2.50833	-21935
2.51667	-21978
2.52500	-22019
2.53333	-22060
2.54167	-22099
2.55000	-22138
2.55833	-22176
2.56667	-22213
2.57500	-22249
2.58333	-22282
2.59167	-22315
2.60000	-22347
2.60833	-22379
2.61667	-22409
2.62500	-22437
2.63333	-22465
2.64167	-22492
2.65000	-22518
2.65833	-22542
2.66667	-22564
2.67500	-22583
2.68333	-22601
2.69167	-22620
2.70000	-22640
2.70833	-22660
2.71667	-22677
2.72500	-22692
2.73333	-22707
2.74167	-22721
2.75000	-22734
2.75833	-22745
2.76667	-22755
2.77500	-22765
2.78333	-22774
2.79167	-22781
2.80000	-22787
2.80833	-22790
2.81667	-22794
2.82500	-22796
2.83333	-22795
2.84167	-22794
2.85000	-22791
2.85833	-22784
2.86667	-22776
2.87500	-22767
2.88333	-22757
2.89167	-22745
2.90000	-22729
2.90833	-22712
2.91667	-22695
2.92500	-22674
2.93333	-22649
2.94167	-22623
2.95000	-22596
2.95833	-22563
2.96667	-22526
2.97500	-22486
2.98333	-22444
2.99167	-22400
3.00000	-22351
3.00833	-22297
3.01667	-22240
3.02500	-22179
3.03333	-22115
3.04167	-22043
3.05000	-21966
3.05833	-21883
3.06667	-21793
3.07500	-21697
3.08333	-21595
3.09167	-21486
3.10000	-21369
3.10833	-21241
3.11667	-21101
3.12500	-20950
3.13333	-20784
3.14167	-20599
3.15000	-20392
3.15833	-20157
3.16667	-19889
3.17500	-19580
3.18333	-19219
3.19167	-18795
3.20000	-18294
3.20833	-17704
3.21667	-17002
3.22500	-16170
3.23333	-15187
3.24167	-14027
3.25000	-12669
3.25833	-11094
3.26667	-9280
3.27500	-7209
3.28333	-4869
3.29167	-2246
3.30000	666
3.30833	3862
3.31667	7338
3.32500	11084
3.33333	15089
3.34167	19326
3.35000	23773
3.35833	28402
3.36667	33180
3.37500	38074
3.38333	43050
3.39167	48064
3.40000	53080
3.40833	58068
3.41667	62995
3.42500	67829
3.43333	72545
3.44167	77120
3.45000	81530
3.45833	85758
3.46667	89791
3.47500	93621
3.48333	97242
3.49167	100650
3.50000	103843
3.50833	106827
3.51667	109601
3.52500	112168
3.53333	114536
3.54167	116712
3.55000	118705
3.55833	120521
3.56667	122168
3.57500	123657
3.58333	124995
3.59167	126191
3.60000	127254
3.60833	128192
3.61667	129013
3.62500	129726
3.63333	130337
3.64167	130852
3.65000	131280
3.65833	131629
3.66667	131907
3.67500	132120
3.68333	132273
3.69167	132376
3.70000	132433
3.70833	132452
3.71667	132440
3.72500	132405
3.73333	132354
3.74167	132295
3.75000	132234
3.75833	132176
3.76667	132131
3.77500	132106
3.78333	132103
3.79167	132130
3.80000	132196
3.80833	132303
3.81667	132452
3.82500	132648
3.83333	132893
3.84167	133189
3.85000	133538
3.85833	133937
3.86667	134378
3.87500	134863
3.88333	135389
3.89167	135949
3.90000	136539
3.90833	137153
3.91667	137784
3.92500	138423
3.93333	139067
3.94167	139708
3.95000	140343
3.95833	140965
3.96667	141571
3.97500	142159
3.98333	142724
3.99167	143265
4.00000	143783
4.00833	144279
4.01667	144752
4.02500	145206
4.03333	145641
4.04167	146059
4.05000	146468
4.05833	146870
4.06667	147270
4.07500	147670
4.08333	148073
4.09167	148483
4.10000	148907
4.10833	149347
4.11667	149804
4.12500	150281
4.13333	150782
4.14167	151309
4.15000	151860
4.15833	152436
4.16667	153037
4.17500	153664
4.18333	154316
4.19167	154992
4.20000	155691
4.20833	156407
4.21667	157137
4.22500	157874
4.23333	158612
4.24167	159348
4.25000	160072
4.25833	160776
4.26667	161456
4.27500	162103
4.28333	162709
4.29167	163264
4.30000	163764
4.30833	164199
4.31667	164561
4.32500	164846
4.33333	165052
4.34167	165174
4.35000	165212
4.35833	165162
4.36667	165026
4.37500	164803
4.38333	164497
4.39167	164106
4.40000	163633
4.40833	163085
4.41667	162463
4.42500	161774
4.43333	161020
4.44167	160203
4.45000	159331
4.45833	158405
4.46667	157433
4.47500	156417
4.48333	155360
4.49167	154266
4.50000	153137
4.50833	151979
4.51667	150795
4.52500	149586
4.53333	148352
4.54167	147096
4.55000	145817
4.55833	144520
4.56667	143205
4.57500	141874
4.58333	140525
4.59167	139159
4.60000	137774
4.60833	136374
4.61667	134956
4.62500	133526
4.63333	132080
4.64167	130616
4.65000	129136
4.65833	127641
4.66667	126133
4.67500	124611
4.68333	123077
4.69167	121528
4.70000	119968
4.70833	118398
4.71667	116820
4.72500	115234
4.73333	113644
4.74167	112047
4.75000	110447
4.75833	108843
4.76667	107234
4.77500	105626
4.78333	104020
4.79167	102420
4.80000	100823
4.80833	99230
4.81667	97645
4.82500	96068
4.83333	94501
4.84167	92945
4.85000	91404
4.85833	89873
4.86667	88355
4.87500	86853
4.88333	85366
4.89167	83897
4.90000	82446
4.90833	81017
4.91667	79607
4.92500	78217
4.93333	76851
4.94167	75509
4.95000	74190
4.95833	72894
4.96667	71627
4.97500	70384
4.98333	69165
4.99167	67971
5.00000	66803
5.00833	65663
5.01667	64551
5.02500	63466
5.03333	62407
5.04167	61375
5.05000	60372
5.05833	59395
5.06667	58445
5.07500	57524
5.08333	56626
5.09167	55750
5.10000	54898
5.10833	54067
5.11667	53256
5.12500	52466
5.13333	51697
5.14167	50947
5.15000	50213
5.15833	49495
5.16667	48790
5.17500	48102
5.18333	47429
5.19167	46768
5.20000	46115
5.20833	45471
5.21667	44837
5.22500	44211
5.23333	43592
5.24167	42984
5.25000	42380
5.25833	41784
5.26667	41196
5.27500	40615
5.28333	40040
5.29167	39472
5.30000	38912
5.30833	38360
5.31667	37813
5.32500	37273
5.33333	36741
5.34167	36216
5.35000	35701
5.35833	35195
5.36667	34697
5.37500	34208
5.38333	33730
5.39167	33261
5.40000	32802
5.40833	32354
5.41667	31915
5.42500	31484
5.43333	31063
5.44167	30653
5.45000	30256
5.45833	29870
5.46667	29495
5.47500	29130
5.48333	28778
5.49167	28435
5.50000	28102
5.50833	27779
5.51667	27466
5.52500	27166
5.53333	26877
5.54167	26596
5.55000	26323
5.55833	26057
5.56667	25801
5.57500	25555
5.58333	25318
5.59167	25086
5.60000	24861
5.60833	24643
5.61667	24428
5.62500	24222
5.63333	24024
5.64167	23833
5.65000	23646
5.65833	23464
5.66667	23285
5.67500	23112
5.68333	22945
5.69167	22784
5.70000	22625
5.70833	22473
5.71667	22326
5.72500	22183
5.73333	22044
5.74167	21911
5.75000	21784
5.75833	21662
5.76667	21545
5.77500	21433
5.78333	21327
5.79167	21228
5.80000	21135
5.80833	21046
5.81667	20964
5.82500	20888
5.83333	20821
5.84167	20762
5.85000	20710
5.85833	20664
5.86667	20624
5.87500	20588
5.88333	20558
5.89167	20535
5.90000	20519
5.90833	20508
5.91667	20500
5.92500	20499
5.93333	20504
5.94167	20517
5.95000	20534
5.95833	20556
5.96667	20584
5.97500	20614
5.98333	20646
5.99167	20682
6.00000	20725
6.00833	20770
6.01667	20821
6.02500	20877
6.03333	20933
6.04167	20993
6.05000	21056
6.05833	21121
6.06667	21188
6.07500	21258
6.08333	21331
6.09167	21404
6.10000	21476
6.10833	21548
6.11667	21622
6.12500	21700
6.13333	21778
6.14167	21855
6.15000	21933
6.15833	22012
6.16667	22092
6.17500	22173
6.18333	22255
6.19167	22339
6.20000	22427
6.20833	22517
6.21667	22609
6.22500	22701
6.23333	22796
6.24167	22892
6.25000	22993
6.25833	23099
6.26667	23210
6.27500	23325
6.28333	23444
6.29167	23568
6.30000	23698
6.30833	23836
6.31667	23982
6.32500	24136
6.33333	24299
6.34167	24471
6.35000	24654
6.35833	24847
6.36667	25050
6.37500	25267
6.38333	25498
6.39167	25744
6.40000	26004
6.40833	26280
6.41667	26571
6.42500	26880
6.43333	27208
6.44167	27553
6.45000	27915
6.45833	28298
6.46667	28700
6.47500	29122
6.48333	29561
6.49167	30021
6.50000	30499
6.50833	30995
6.51667	31511
6.52500	32045
6.53333	32596
6.54167	33161
6.55000	33740
6.55833	34334
6.56667	34943
6.57500	35565
6.58333	36199
6.59167	36841
6.60000	37491
6.60833	38146
6.61667	38806
6.62500	39470
6.63333	40135
6.64167	40800
6.65000	41460
6.65833	42119
6.66667	42771
6.67500	43413
6.68333	44048
6.69167	44669
6.70000	45279
6.70833	45875
6.71667	46455
6.72500	47020
6.73333	47565
6.74167	48091
6.75000	48600
6.75833	49089
6.76667	49554
6.77500	49997
6.78333	50417
6.79167	50816
6.80000	51193
6.80833	51547
6.81667	51877
6.82500	52186
6.83333	52475
6.84167	52743
6.85000	52993
6.85833	53222
6.86667	53433
6.87500	53629
6.88333	53810
6.89167	53977
6.90000	54131
6.90833	54277
6.91667	54413
6.92500	54543
6.93333	54668
6.94167	54792
6.95000	54915
6.95833	55040
6.96667	55172
6.97500	55311
6.98333	55461
6.99167	55625
7.00000	55805
7.00833	56004
7.01667	56228
7.02500	56476
7.03333	56756
7.04167	57070
7.05000	57426
7.05833	57824
7.06667	58268
7.07500	58768
7.08333	59324
7.09167	59942
7.10000	60626
7.10833	61383
7.11667	62218
7.12500	63136
7.13333	64144
7.14167	65245
7.15000	66445
7.15833	67748
7.16667	69158
7.17500	70681
7.18333	72321
7.19167	74081
7.20000	75963
7.20833	77972
7.21667	80108
7.22500	82372
7.23333	84764
7.24167	87284
7.25000	89932
7.25833	92706
7.26667	95601
7.27500	98616
7.28333	101747
7.29167	104993
7.30000	108345
7.30833	111798
7.31667	115347
7.32500	118987
7.33333	122708
7.34167	126507
7.35000	130375
7.35833	134304
7.36667	138290
7.37500	142323
7.38333	146396
7.39167	150504
7.40000	154635
7.40833	158781
7.41667	162934
7.42500	167088
7.43333	171235
7.44167	175367
7.45000	179473
7.45833	183543
7.46667	187570
7.47500	191544
7.48333	195453
7.49167	199286
7.50000	203033
7.50833	206685
7.51667	210229
7.52500	213656
7.53333	216955
7.54167	220119
7.55000	223141
7.55833	226013
7.56667	228732
7.57500	231296
7.58333	233705
7.59167	235968
7.60000	238094
7.60833	240086
7.61667	241965
7.62500	243747
7.63333	245452
7.64167	247109
7.65000	248741
7.65833	250377
7.66667	252055
7.67500	253806
7.68333	255668
7.69167	257679
7.70000	259878
7.70833	262307
7.71667	265010
7.72500	268035
7.73333	271433
7.74167	275255
7.75000	279552
7.75833	284380
7.76667	289797
7.77500	295859
7.78333	302617
7.79167	310124
7.80000	318423
7.80833	327549
7.81667	337531
7.82500	348383
7.83333	360107
7.84167	372698
7.85000	386145
7.85833	400416
7.86667	415473
7.87500	431260
7.88333	447713
7.89167	464763
7.90000	482342
7.90833	500366
7.91667	518752
7.92500	537409
7.93333	556249
7.94167	575176
7.95000	594091
7.95833	612903
7.96667	631532
7.97500	649894
7.98333	667916
7.99167	685518
8.00000	702623
8.00833	719172
8.01667	735113
8.02500	750399
8.03333	764967
8.04167	778780
8.05000	791803
8.05833	803995
8.06667	815338
8.07500	825814
8.08333	835395
8.09167	844053
8.10000	851783
8.10833	858573
8.11667	864415
8.12500	869306
8.13333	873244
8.14167	876224
8.15000	878253
8.15833	879338
8.16667	879491
8.17500	878722
8.18333	877048
8.19167	874484
8.20000	871045
8.20833	866754
8.21667	861635
8.22500	855707
8.23333	848992
8.24167	841515
8.25000	833307
8.25833	824390
8.26667	814791
8.27500	804533
8.28333	793649
8.29167	782154
8.30000	770076
8.30833	757426
8.31667	744231
8.32500	730512
8.33333	716296
8.34167	701605
8.35000	686461
8.35833	670890
8.36667	654916
8.37500	638569
8.38333	621885
8.39167	604901
8.40000	587660
8.40833	570199
8.41667	552554
8.42500	534768
8.43333	516894
8.44167	498982
8.45000	481087
8.45833	463251
8.46667	445524
8.47500	427953
8.48333	410587
8.49167	393471
8.50000	376650
8.50833	360161
8.51667	344035
8.52500	328304
8.53333	312996
8.54167	298136
8.55000	283751
8.55833	269864
8.56667	256487
8.57500	243633
8.58333	231311
8.59167	219525
8.60000	208282
8.60833	197584
8.61667	187433
8.62500	177823
8.63333	168753
8.64167	160210
8.65000	152188
8.65833	144683
8.66667	137689
8.67500	131191
8.68333	125183
8.69167	119652
8.70000	114589
8.70833	109983
8.71667	105824
8.72500	102101
8.73333	98801
8.74167	95911
8.75000	93420
8.75833	91316
8.76667	89587
8.77500	88222
8.78333	87212
8.79167	86542
8.80000	86204
8.80833	86189
8.81667	86487
8.82500	87090
8.83333	87991
8.84167	89184
8.85000	90662
8.85833	92420
8.86667	94459
8.87500	96779
8.88333	99382
8.89167	102271
8.90000	105450
8.90833	108926
8.91667	112713
8.92500	116820
8.93333	121257
8.94167	126040
8.95000	131185
8.95833	136710
8.96667	142633
8.97500	148978
8.98333	155763
8.99167	163005
9.00000	170723
9.00833	178938
9.01667	187673
9.02500	196941
9.03333	206756
9.04167	217131
9.05000	228073
9.05833	239594
9.06667	251700
9.07500	264394
9.08333	277676
9.09167	291539
9.10000	305973
9.10833	320959
9.11667	336480
9.12500	352515
9.13333	369037
9.14167	386016
9.15000	403415
9.15833	421193
9.16667	439304
9.17500	457700
9.18333	476332
9.19167	495153
9.20000	514107
9.20833	533133
9.21667	552172
9.22500	571166
9.23333	590059
9.24167	608789
9.25000	627302
9.25833	645533
9.26667	663423
9.27500	680913
9.28333	697950
9.29167	714482
9.30000	730460
9.30833	745835
9.31667	760569
9.32500	774623
9.33333	787955
9.34167	800531
9.35000	812326
9.35833	823324
9.36667	833499
9.37500	842832
9.38333	851311
9.39167	858919
9.40000	865664
9.40833	871555
9.41667	876591
9.42500	880769
9.43333	884095
9.44167	886588
9.45000	888267
9.45833	889158
9.46667	889282
9.47500	888666
9.48333	887333
9.49167	885314
9.50000	882638
9.50833	879343
9.51667	875455
9.52500	871014
9.53333	866053
9.54167	860601
9.55000	854700
9.55833	848389
9.56667	841697
9.57500	834668
9.58333	827333
9.59167	819722
9.60000	811877
9.60833	803824
9.61667	795598
9.62500	787224
9.63333	778741
9.64167	770157
9.65000	761496
9.65833	752789
9.66667	744056
9.67500	735323
9.68333	726600
9.69167	717906
9.70000	709254
9.70833	700650
9.71667	692107
9.72500	683641
9.73333	675256
9.74167	666957
9.75000	658744
9.75833	650624
9.76667	642599
9.77500	634665
9.78333	626824
9.79167	619075
9.80000	611419
9.80833	603851
9.81667	596369
9.82500	588971
9.83333	581652
9.84167	574409
9.85000	567233
9.85833	560120
9.86667	553067
9.87500	546067
9.88333	539118
9.89167	532214
9.90000	525351
9.90833	518521
9.91667	511723
9.92500	504948
9.93333	498198
9.94167	491475
9.95000	484769
9.95833	478079
9.96667	471396
9.97500	464718
9.98333	458045
9.99167	451378
10.00000	444718
10.00833	438060
10.01667	431407
10.02500	424756
10.03333	418103
10.04167	411455
10.05000	404814
10.05833	398179
10.06667	391551
10.07500	384929
10.08333	378314
10.09167	371708
10.10000	365120
10.10833	358545
10.11667	351987
10.12500	345451
10.13333	338938
10.14167	332449
10.15000	325989
10.15833	319560
10.16667	313167
10.17500	306809
10.18333	300491
10.19167	294215
10.20000	287982
10.20833	281797
10.21667	275663
10.22500	269584
10.23333	263561
10.24167	257597
10.25000	251693
10.25833	245853
10.26667	240084
10.27500	234388
10.28333	228763
10.29167	223211
10.30000	217738
10.30833	212341
10.31667	207022
10.32500	201784
10.33333	196630
10.34167	191560
10.35000	186576
10.35833	181677
10.36667	176864
10.37500	172139
10.38333	167504
10.39167	162960
10.40000	158507
10.40833	154143
10.41667	149868
10.42500	145679
10.43333	141580
10.44167	137571
10.45000	133653
10.45833	129821
10.46667	126078
10.47500	122421
10.48333	118850
10.49167	115365
10.50000	111967
10.50833	108653
10.51667	105424
10.52500	102273
10.53333	99202
10.54167	96212
10.55000	93302
10.55833	90470
10.56667	87715
10.57500	85032
10.58333	82421
10.59167	79882
10.60000	77414
10.60833	75018
10.61667	72692
10.62500	70431
10.63333	68234
10.64167	66100
10.65000	64027
10.65833	62014
10.66667	60059
10.67500	58163
10.68333	56320
10.69167	54533
10.70000	52800
10.70833	51119
10.71667	49489
10.72500	47908
10.73333	46372
10.74167	44884
10.75000	43439
10.75833	42039
10.76667	40682
10.77500	39366
10.78333	38088
10.79167	36849
10.80000	35649
10.80833	34485
10.81667	33355
10.82500	32260
10.83333	31202
10.84167	30175
10.85000	29181
10.85833	28218
10.86667	27283
10.87500	26377
10.88333	25498
10.89167	24644
10.90000	23816
10.90833	23016
10.91667	22241
10.92500	21488
10.93333	20758
10.94167	20052
10.95000	19369
10.95833	18707
10.96667	18065
10.97500	17444
10.98333	16840
10.99167	16253
11.00000	15685

[LC Chromatogram(Detector B-Ch1)]
Interval(msec)	500
# of Points	1321
Start Time(min)	0.000
End Time(min)	11.000
Intensity Units	mV
Intensity Multiplier	0.001
Ex. Wavelength(nm)	482
Em. Wavelength(nm)	520
R.Time (min)	Intensity
0.00000	-5298
0.00833	-5298
0.01667	-890
0.02500	-128
0.03333	-121
0.04167	-90
0.05000	-185
0.05833	-274
0.06667	-352
0.07500	-423
0.08333	-485
0.09167	-546
0.10000	-613
0.10833	-683
0.11667	-755
0.12500	-835
0.13333	-914
0.14167	-990
0.15000	-1068
0.15833	-1150
0.16667	-1234
0.17500	-1319
0.18333	-1405
0.19167	-1497
0.20000	-1588
0.20833	-1684
0.21667	-1780
0.22500	-1872
0.23333	-1961
0.24167	-2044
0.25000	-2124
0.25833	-2201
0.26667	-2274
0.27500	-2345
0.28333	-2411
0.29167	-2475
0.30000	-2542
0.30833	-2613
0.31667	-2686
0.32500	-2759
0.33333	-2833
0.34167	-2912
0.35000	-2990
0.35833	-3068
0.36667	-3150
0.37500	-3229
0.38333	-3306
0.39167	-3384
0.40000	-3463
0.40833	-3544
0.41667	-3628
0.42500	-3709
0.43333	-3790
0.44167	-3870
0.45000	-3954
0.45833	-4039
0.46667	-4123
0.47500	-4205
0.48333	-4286
0.49167	-4368
0.50000	-4451
0.50833	-4538
0.51667	-4621
0.52500	-4702
0.53333	-4779
0.54167	-4858
0.55000	-4939
0.55833	-5021
0.56667	-5099
0.57500	-5176
0.58333	-5255
0.59167	-5331
0.60000	-5407
0.60833	-5481
0.61667	-5554
0.62500	-5629
0.63333	-5701
0.64167	-5773
0.65000	-5844
0.65833	-5919
0.66667	-5991
0.67500	-6064
0.68333	-6138
0.69167	-6211
0.70000	-6283
0.70833	-6351
0.71667	-6414
0.72500	-6481
0.73333	-6551
0.74167	-6619
0.75000	-6688
0.75833	-6753
0.76667	-6816
0.77500	-6884
0.78333	-6948
0.79167	-7012
0.80000	-7077
0.80833	-7137
0.81667	-7198
0.82500	-7258
0.83333	-7319
0.84167	-7378
0.85000	-7437
0.85833	-7495
0.86667	-7553
0.87500	-7609
0.88333	-7668
0.89167	-7727
0.90000	-7783
0.90833	-7840
0.91667	-7902
0.92500	-7960
0.93333	-8018
0.94167	-8073
0.95000	-8131
0.95833	-8188
0.96667	-8243
0.97500	-8294
0.98333	-8347
0.99167	-8403
1.00000	-8461
1.00833	-8519
1.01667	-8576
1.02500	-8628
1.03333	-8676
1.04167	-8727
1.05000	-8778
1.05833	-8830
1.06667	-8883
1.07500	-8934
1.08333	-8983
1.09167	-9033
1.10000	-9085
1.10833	-9133
1.11667	-9178
1.12500	-9226
1.13333	-9274
1.14167	-9321
1.15000	-9368
1.15833	-9415
1.16667	-9466
1.17500	-9513
1.18333	-9559
1.19167	-9603
1.20000	-9650
1.20833	-9697
1.21667	-9741
1.22500	-9785
1.23333	-9829
1.24167	-9863
1.25000	-9901
1.25833	-9941
1.26667	-9981
1.27500	-10022
1.28333	-10065
1.29167	-10107
1.30000	-10146
1.30833	-10186
1.31667	-10222
1.32500	-10257
1.33333	-10291
1.34167	-10331
1.35000	-10369
1.35833	-10408
1.36667	-10444
1.37500	-10481
1.38333	-10516
1.39167	-10555
1.40000	-10595
1.40833	-10635
1.41667	-10676
1.42500	-10714
1.43333	-10752
1.44167	-10790
1.45000	-10830
1.45833	-10871
1.46667	-10911
1.47500	-10953
1.48333	-10994
1.49167	-11034
1.50000	-11072
1.50833	-11111
1.51667	-11153
1.52500	-11193
1.53333	-11231
1.54167	-11267
1.55000	-11301
1.55833	-11337
1.56667	-11376
1.57500	-11411
1.58333	-11442
1.59167	-11473
1.60000	-11510
1.60833	-11546
1.61667	-11580
1.62500	-11614
1.63333	-11649
1.64167	-11682
1.65000	-11716
1.65833	-11752
1.66667	-11787
1.67500	-11823
1.68333	-11858
1.69167	-11893
1.70000	-11926
1.70833	-11958
1.71667	-11988
1.72500	-12018
1.73333	-12047
1.74167	-12084
1.75000	-12125
1.75833	-12160
1.76667	-12195
1.77500	-12229
1.78333	-12266
1.79167	-12300
1.80000	-12332
1.80833	-12364
1.81667	-12396
1.82500	-12429
1.83333	-12460
1.84167	-12493
1.85000	-12524
1.85833	-12554
1.86667	-12586
1.87500	-12617
1.88333	-12644
1.89167	-12673
1.90000	-12706
1.90833	-12740
1.91667	-12772
1.92500	-12804
1.93333	-12835
1.94167	-12866
1.95000	-12900
1.95833	-12931
1.96667	-12961
1.97500	-12994
1.98333	-13027
1.99167	-13059
2.00000	-13091
2.00833	-13121
2.01667	-13153
2.02500	-13188
2.03333	-13221
2.04167	-13250
2.05000	-13280
2.05833	-13312
2.06667	-13345
2.07500	-13375
2.08333	-13406
2.09167	-13435
2.10000	-13462
2.10833	-13488
2.11667	-13518
2.12500	-13550
2.13333	-13582
2.14167	-13614
2.15000	-13645
2.15833	-13673
2.16667	-13699
2.17500	-13726
2.18333	-13756
2.19167	-13785
2.20000	-13812
2.20833	-13843
2.21667	-13874
2.22500	-13899
2.23333	-13930
2.24167	-13961
2.25000	-13988
2.25833	-14012
2.26667	-14038
2.27500	-14065
2.28333	-14094
2.29167	-14124
2.30000	-14153
2.30833	-14183
2.31667	-14214
2.32500	-14245
2.33333	-14274
2.34167	-14303
2.35000	-14331
2.35833	-14356
2.36667	-14381
2.37500	-14407
2.38333	-14434
2.39167	-14460
2.40000	-14489
2.40833	-14519
2.41667	-14550
2.42500	-14579
2.43333	-14605
2.44167	-14632
2.45000	-14657
2.45833	-14680
2.46667	-14705
2.47500	-14731
2.48333	-14759
2.49167	-14788
2.50000	-14816
2.50833	-14843
2.51667	-14869
2.52500	-14892
2.53333	-14915
2.54167	-14942
2.55000	-14967
2.55833	-14992
2.56667	-15014
2.57500	-15039
2.58333	-15061
2.59167	-15082
2.60000	-15103
2.60833	-15126
2.61667	-15146
2.62500	-15168
2.63333	-15191
2.64167	-15213
2.65000	-15234
2.65833	-15256
2.66667	-15276
2.67500	-15294
2.68333	-15312
2.69167	-15329
2.70000	-15348
2.70833	-15370
2.71667	-15392
2.72500	-15416
2.73333	-15440
2.74167	-15463
2.75000	-15486
2.75833	-15508
2.76667	-15527
2.77500	-15548
2.78333	-15570
2.79167	-15590
2.80000	-15610
2.80833	-15633
2.81667	-15656
2.82500	-15678
2.83333	-15698
2.84167	-15719
2.85000	-15737
2.85833	-15755
2.86667	-15775
2.87500	-15797
2.88333	-15818
2.89167	-15841
2.90000	-15863
2.90833	-15880
2.91667	-15898
2.92500	-15916
2.93333	-15937
2.94167	-15961
2.95000	-15982
2.95833	-16003
2.96667	-16024
2.97500	-16045
2.98333	-16064
2.99167	-16082
3.00000	-16102
3.00833	-16123
3.01667	-16142
3.02500	-16159
3.03333	-16178
3.04167	-16196
3.05000	-16216
3.05833	-16238
3.06667	-16262
3.07500	-16284
3.08333	-16307
3.09167	-16330
3.10000	-16352
3.10833	-16369
3.11667	-16387
3.12500	-16408
3.13333	-16429
3.14167	-16448
3.15000	-16467
3.15833	-16487
3.16667	-16508
3.17500	-16529
3.18333	-16550
3.19167	-16570
3.20000	-16589
3.20833	-16610
3.21667	-16628
3.22500	-16645
3.23333	-16662
3.24167	-16680
3.25000	-16701
3.25833	-16722
3.26667	-16741
3.27500	-16761
3.28333	-16779
3.29167	-16796
3.30000	-16815
3.30833	-16835
3.31667	-16854
3.32500	-16874
3.33333	-16894
3.34167	-16913
3.35000	-16930
3.35833	-16948
3.36667	-16967
3.37500	-16984
3.38333	-16997
3.39167	-17009
3.40000	-17016
3.40833	-17021
3.41667	-17025
3.42500	-17026
3.43333	-17021
3.44167	-17012
3.45000	-16993
3.45833	-16963
3.46667	-16923
3.47500	-16869
3.48333	-16801
3.49167	-16713
3.50000	-16605
3.50833	-16468
3.51667	-16301
3.52500	-16099
3.53333	-15861
3.54167	-15581
3.55000	-15254
3.55833	-14877
3.56667	-14449
3.57500	-13966
3.58333	-13422
3.59167	-12818
3.60000	-12152
3.60833	-11425
3.61667	-10639
3.62500	-9796
3.63333	-8893
3.64167	-7933
3.65000	-6925
3.65833	-5873
3.66667	-4780
3.67500	-3653
3.68333	-2503
3.69167	-1330
3.70000	-147
3.70833	1043
3.71667	2234
3.72500	3417
3.73333	4592
3.74167	5751
3.75000	6890
3.75833	8000
3.76667	9081
3.77500	10126
3.78333	11137
3.79167	12116
3.80000	13056
3.80833	13956
3.81667	14818
3.82500	15641
3.83333	16426
3.84167	17176
3.85000	17892
3.85833	18575
3.86667	19231
3.87500	19861
3.88333	20465
3.89167	21045
3.90000	21598
3.90833	22123
3.91667	22623
3.92500	23107
3.93333	23575
3.94167	24033
3.95000	24477
3.95833	24908
3.96667	25325
3.97500	25735
3.98333	26144
3.99167	26543
4.00000	26937
4.00833	27326
4.01667	27711
4.02500	28098
4.03333	28484
4.04167	28873
4.05000	29265
4.05833	29664
4.06667	30066
4.07500	30469
4.08333	30877
4.09167	31295
4.10000	31722
4.10833	32157
4.11667	32607
4.12500	33064
4.13333	33530
4.14167	34005
4.15000	34499
4.15833	35008
4.16667	35532
4.17500	36074
4.18333	36630
4.19167	37204
4.20000	37804
4.20833	38428
4.21667	39078
4.22500	39763
4.23333	40475
4.24167	41217
4.25000	41992
4.25833	42805
4.26667	43662
4.27500	44570
4.28333	45536
4.29167	46563
4.30000	47660
4.30833	48830
4.31667	50080
4.32500	51421
4.33333	52862
4.34167	54411
4.35000	56072
4.35833	57859
4.36667	59786
4.37500	61860
4.38333	64087
4.39167	66479
4.40000	69056
4.40833	71815
4.41667	74765
4.42500	77921
4.43333	81288
4.44167	84867
4.45000	88669
4.45833	92694
4.46667	96949
4.47500	101438
4.48333	106161
4.49167	111120
4.50000	116319
4.50833	121756
4.51667	127409
4.52500	133266
4.53333	139321
4.54167	145558
4.55000	151954
4.55833	158473
4.56667	165113
4.57500	171834
4.58333	178590
4.59167	185350
4.60000	192090
4.60833	198771
4.61667	205354
4.62500	211806
4.63333	218085
4.64167	224146
4.65000	229963
4.65833	235504
4.66667	240758
4.67500	245689
4.68333	250272
4.69167	254478
4.70000	258312
4.70833	261775
4.71667	264855
4.72500	267539
4.73333	269815
4.74167	271704
4.75000	273197
4.75833	274315
4.76667	275082
4.77500	275501
4.78333	275574
4.79167	275315
4.80000	274747
4.80833	273886
4.81667	272750
4.82500	271365
4.83333	269741
4.84167	267868
4.85000	265782
4.85833	263485
4.86667	260995
4.87500	258350
4.88333	255564
4.89167	252645
4.90000	249607
4.90833	246453
4.91667	243192
4.92500	239853
4.93333	236450
4.94167	232992
4.95000	229488
4.95833	225937
4.96667	222360
4.97500	218765
4.98333	215162
4.99167	211553
5.00000	207943
5.00833	204334
5.01667	200734
5.02500	197146
5.03333	193584
5.04167	190030
5.05000	186497
5.05833	182997
5.06667	179527
5.07500	176088
5.08333	172685
5.09167	169317
5.10000	165986
5.10833	162693
5.11667	159443
5.12500	156252
5.13333	153120
5.14167	150026
5.15000	146972
5.15833	143951
5.16667	140974
5.17500	138045
5.18333	135170
5.19167	132351
5.20000	129580
5.20833	126850
5.21667	124175
5.22500	121548
5.23333	118960
5.24167	116414
5.25000	113917
5.25833	111472
5.26667	109067
5.27500	106707
5.28333	104395
5.29167	102123
5.30000	99897
5.30833	97715
5.31667	95584
5.32500	93490
5.33333	91439
5.34167	89431
5.35000	87465
5.35833	85544
5.36667	83668
5.37500	81834
5.38333	80036
5.39167	78274
5.40000	76549
5.40833	74857
5.41667	73204
5.42500	71594
5.43333	70023
5.44167	68493
5.45000	66990
5.45833	65522
5.46667	64092
5.47500	62689
5.48333	61315
5.49167	59972
5.50000	58656
5.50833	57377
5.51667	56122
5.52500	54898
5.53333	53700
5.54167	52529
5.55000	51389
5.55833	50274
5.56667	49184
5.57500	48117
5.58333	47071
5.59167	46055
5.60000	45062
5.60833	44090
5.61667	43140
5.62500	42215
5.63333	41314
5.64167	40439
5.65000	39585
5.65833	38746
5.66667	37931
5.67500	37139
5.68333	36362
5.69167	35599
5.70000	34859
5.70833	34139
5.71667	33435
5.72500	32754
5.73333	32097
5.74167	31453
5.75000	30825
5.75833	30211
5.76667	29616
5.77500	29035
5.78333	28470
5.79167	27918
5.80000	27383
5.80833	26864
5.81667	26355
5.82500	25849
5.83333	25354
5.84167	24875
5.85000	24405
5.85833	23951
5.86667	23507
5.87500	23077
5.88333	22656
5.89167	22239
5.90000	21832
5.90833	21434
5.91667	21051
5.92500	20675
5.93333	20307
5.94167	19947
5.95000	19596
5.95833	19249
5.96667	18913
5.97500	18575
5.98333	18242
5.99167	17917
6.00000	17607
6.00833	17301
6.01667	17000
6.02500	16703
6.03333	16411
6.04167	16126
6.05000	15841
6.05833	15559
6.06667	15283
6.07500	15011
6.08333	14747
6.09167	14485
6.10000	14226
6.10833	13967
6.11667	13711
6.12500	13455
6.13333	13204
6.14167	12960
6.15000	12717
6.15833	12473
6.16667	12226
6.17500	11982
6.18333	11739
6.19167	11502
6.20000	11269
6.20833	11031
6.21667	10794
6.22500	10559
6.23333	10322
6.24167	10095
6.25000	9872
6.25833	9649
6.26667	9427
6.27500	9205
6.28333	8980
6.29167	8760
6.30000	8547
6.30833	8337
6.31667	8123
6.32500	7909
6.33333	7700
6.34167	7491
6.35000	7282
6.35833	7073
6.36667	6870
6.37500	6667
6.38333	6470
6.39167	6279
6.40000	6089
6.40833	5901
6.41667	5713
6.42500	5524
6.43333	5338
6.44167	5153
6.45000	4971
6.45833	4795
6.46667	4623
6.47500	4448
6.48333	4280
6.49167	4119
6.50000	3961
6.50833	3803
6.51667	3651
6.52500	3498
6.53333	3350
6.54167	3209
6.55000	3065
6.55833	2928
6.56667	2794
6.57500	2666
6.58333	2544
6.59167	2428
6.60000	2317
6.60833	2216
6.61667	2118
6.62500	2025
6.63333	1935
6.64167	1845
6.65000	1759
6.65833	1682
6.66667	1615
6.67500	1552
6.68333	1493
6.69167	1443
6.70000	1401
6.70833	1365
6.71667	1334
6.72500	1314
6.73333	1303
6.74167	1301
6.75000	1313
6.75833	1331
6.76667	1358
6.77500	1393
6.78333	1437
6.79167	1491
6.80000	1556
6.80833	1637
6.81667	1723
6.82500	1824
6.83333	1938
6.84167	2074
6.85000	2228
6.85833	2392
6.86667	2575
6.87500	2776
6.88333	2994
6.89167	3235
6.90000	3499
6.90833	3785
6.91667	4093
6.92500	4424
6.93333	4780
6.94167	5166
6.95000	5585
6.95833	6037
6.96667	6521
6.97500	7043
6.98333	7608
6.99167	8218
7.00000	8873
7.00833	9575
7.01667	10330
7.02500	11139
7.03333	12006
7.04167	12943
7.05000	13954
7.05833	15046
7.06667	16223
7.07500	17486
7.08333	18847
7.09167	20314
7.10000	21897
7.10833	23607
7.11667	25452
7.12500	27439
7.13333	29587
7.14167	31912
7.15000	34422
7.15833	37137
7.16667	40069
7.17500	43237
7.18333	46663
7.19167	50362
7.20000	54359
7.20833	58673
7.21667	63335
7.22500	68373
7.23333	73805
7.24167	79656
7.25000	85957
7.25833	92740
7.26667	100030
7.27500	107857
7.28333	116256
7.29167	125262
7.30000	134927
7.30833	145288
7.31667	156360
7.32500	168193
7.33333	180846
7.34167	194326
7.35000	208638
7.35833	223812
7.36667	239907
7.37500	256921
7.38333	274862
7.39167	293754
7.40000	313625
7.40833	334438
7.41667	356202
7.42500	378931
7.43333	402587
7.44167	427175
7.45000	452668
7.45833	479015
7.46667	506169
7.47500	534115
7.48333	562799
7.49167	592182
7.50000	622222
7.50833	652848
7.51667	683994
7.52500	715585
7.53333	747569
7.54167	779876
7.55000	812460
7.55833	845256
7.56667	878161
7.57500	911040
7.58333	943853
7.59167	976571
7.60000	1009019
7.60833	1041141
7.61667	1072874
7.62500	1104113
7.63333	1134773
7.64167	1164755
7.65000	1194017
7.65833	1222491
7.66667	1250101
7.67500	1276760
7.68333	1302417
7.69167	1327000
7.70000	1350560
7.70833	1373048
7.71667	1394396
7.72500	1414566
7.73333	1433515
7.74167	1451223
7.75000	1467738
7.75833	1483022
7.76667	1497007
7.77500	1509737
7.78333	1521211
7.79167	1531435
7.80000	1540383
7.80833	1548115
7.81667	1554592
7.82500	1559874
7.83333	1563955
7.84167	1566909
7.85000	1568731
7.85833	1569442
7.86667	1569031
7.87500	1567575
7.88333	1565094
7.89167	1561617
7.90000	1557212
7.90833	1551856
7.91667	1545580
7.92500	1538445
7.93333	1530507
7.94167	1521754
7.95000	1512236
7.95833	1502007
7.96667	1491089
7.97500	1479489
7.98333	1467185
7.99167	1454263
8.00000	1440761
8.00833	1426713
8.01667	1412149
8.02500	1397086
8.03333	1381525
8.04167	1365483
8.05000	1349019
8.05833	1332153
8.06667	1314965
8.07500	1297466
8.08333	1279734
8.09167	1261760
8.10000	1243551
8.10833	1225130
8.11667	1206587
8.12500	1187930
8.13333	1169231
8.14167	1150542
8.15000	1131928
8.15833	1113408
8.16667	1094971
8.17500	1076695
8.18333	1058607
8.19167	1040727
8.20000	1023045
8.20833	1005586
8.21667	988370
8.22500	971427
8.23333	954779
8.24167	938426
8.25000	922389
8.25833	906654
8.26667	891238
8.27500	876154
8.28333	861404
8.29167	846963
8.30000	832860
8.30833	819053
8.31667	805537
8.32500	792319
8.33333	779419
8.34167	766853
8.35000	754560
8.35833	742528
8.36667	730749
8.37500	719195
8.38333	707896
8.39167	696829
8.40000	685990
8.40833	675386
8.41667	664988
8.42500	654780
8.43333	644771
8.44167	634949
8.45000	625277
8.45833	615767
8.46667	606396
8.47500	597139
8.48333	588013
8.49167	579017
8.50000	570109
8.50833	561295
8.51667	552590
8.52500	543993
8.53333	535480
8.54167	527050
8.55000	518709
8.55833	510431
8.56667	502215
8.57500	494083
8.58333	486036
8.59167	478073
8.60000	470190
8.60833	462394
8.61667	454676
8.62500	447038
8.63333	439486
8.64167	432014
8.65000	424625
8.65833	417318
8.66667	410114
8.67500	403015
8.68333	396015
8.69167	389124
8.70000	382313
8.70833	375611
8.71667	369023
8.72500	362545
8.73333	356198
8.74167	349960
8.75000	343829
8.75833	337794
8.76667	331872
8.77500	326076
8.78333	320397
8.79167	314852
8.80000	309444
8.80833	304166
8.81667	299021
8.82500	294020
8.83333	289167
8.84167	284460
8.85000	279915
8.85833	275514
8.86667	271261
8.87500	267161
8.88333	263207
8.89167	259405
8.90000	255752
8.90833	252254
8.91667	248908
8.92500	245709
8.93333	242666
8.94167	239787
8.95000	237047
8.95833	234434
8.96667	231957
8.97500	229614
8.98333	227404
8.99167	225307
9.00000	223329
9.00833	221476
9.01667	219732
9.02500	218080
9.03333	216528
9.04167	215087
9.05000	213738
9.05833	212463
9.06667	211250
9.07500	210112
9.08333	209039
9.09167	208015
9.10000	207033
9.10833	206081
9.11667	205152
9.12500	204268
9.13333	203398
9.14167	202537
9.15000	201677
9.15833	200814
9.16667	199950
9.17500	199063
9.18333	198163
9.19167	197247
9.20000	196303
9.20833	195336
9.21667	194319
9.22500	193261
9.23333	192166
9.24167	191031
9.25000	189844
9.25833	188612
9.26667	187324
9.27500	185999
9.28333	184617
9.29167	183176
9.30000	181678
9.30833	180135
9.31667	178539
9.32500	176883
9.33333	175176
9.34167	173415
9.35000	171596
9.35833	169734
9.36667	167815
9.37500	165853
9.38333	163848
9.39167	161802
9.40000	159712
9.40833	157587
9.41667	155433
9.42500	153244
9.43333	151029
9.44167	148777
9.45000	146494
9.45833	144195
9.46667	141887
9.47500	139557
9.48333	137214
9.49167	134869
9.50000	132511
9.50833	130148
9.51667	127783
9.52500	125426
9.53333	123063
9.54167	120707
9.55000	118361
9.55833	116018
9.56667	113694
9.57500	111380
9.58333	109083
9.59167	106802
9.60000	104534
9.60833	102290
9.61667	100077
9.62500	97901
9.63333	95750
9.64167	93625
9.65000	91525
9.65833	89455
9.66667	87421
9.67500	85422
9.68333	83446
9.69167	81504
9.70000	79597
9.70833	77729
9.71667	75890
9.72500	74087
9.73333	72329
9.74167	70605
9.75000	68914
9.75833	67256
9.76667	65639
9.77500	64061
9.78333	62514
9.79167	60992
9.80000	59502
9.80833	58050
9.81667	56638
9.82500	55256
9.83333	53905
9.84167	52590
9.85000	51310
9.85833	50061
9.86667	48844
9.87500	47657
9.88333	46495
9.89167	45361
9.90000	44258
9.90833	43178
9.91667	42123
9.92500	41091
9.93333	40087
9.94167	39105
9.95000	38148
9.95833	37213
9.96667	36299
9.97500	35411
9.98333	34544
9.99167	33697
10.00000	32864
10.00833	32060
10.01667	31275
10.02500	30503
10.03333	29746
10.04167	29004
10.05000	28285
10.05833	27583
10.06667	26894
10.07500	26218
10.08333	25558
10.09167	24908
10.10000	24271
10.10833	23650
10.11667	23044
10.12500	22450
10.13333	21867
10.14167	21297
10.15000	20736
10.15833	20183
10.16667	19646
10.17500	19125
10.18333	18616
10.19167	18113
10.20000	17620
10.20833	17131
10.21667	16649
10.22500	16176
10.23333	15715
10.24167	15268
10.25000	14832
10.25833	14403
10.26667	13981
10.27500	13563
10.28333	13158
10.29167	12761
10.30000	12368
10.30833	11987
10.31667	11616
10.32500	11245
10.33333	10878
10.34167	10518
10.35000	10172
10.35833	9833
10.36667	9497
10.37500	9167
10.38333	8845
10.39167	8528
10.40000	8217
10.40833	7912
10.41667	7611
10.42500	7315
10.43333	7023
10.44167	6740
10.45000	6462
10.45833	6183
10.46667	5910
10.47500	5640
10.48333	5372
10.49167	5110
10.50000	4853
10.50833	4598
10.51667	4349
10.52500	4103
10.53333	3862
10.54167	3624
10.55000	3392
10.55833	3164
10.56667	2942
10.57500	2720
10.58333	2499
10.59167	2282
10.60000	2067
10.60833	1857
10.61667	1652
10.62500	1449
10.63333	1249
10.64167	1051
10.65000	855
10.65833	662
10.66667	474
10.67500	293
10.68333	116
10.69167	-60
10.70000	-236
10.70833	-408
10.71667	-580
10.72500	-748
10.73333	-915
10.74167	-1081
10.75000	-1240
10.75833	-1396
10.76667	-1551
10.77500	-1701
10.78333	-1851
10.79167	-2001
10.80000	-2145
10.80833	-2285
10.81667	-2426
10.82500	-2565
10.83333	-2703
10.84167	-2838
10.85000	-2970
10.85833	-3103
10.86667	-3238
10.87500	-3372
10.88333	-3501
10.89167	-3628
10.90000	-3755
10.90833	-3882
10.91667	-4007
10.92500	-4128
10.93333	-4249
10.94167	-4368
10.95000	-4486
10.95833	-4598
10.96667	-4710
10.97500	-4820
10.98333	-4931
10.99167	-5043
11.00000	-5151

[LC Status Trace(Pump A Pressure)]
Interval(msec)	1000
# of Points	661
Start Time(min)	0.000
End Time(min)	11.000
Intensity Units	kgf/cm2
Intensity Multiplier	1
R.Time (min)	Intensity
0.00000	44.0
0.01667	44.0
0.03333	31.9
0.05000	33.7
0.06667	36.3
0.08333	38.3
0.10000	39.1
0.11667	40.5
0.13333	41.0
0.15000	41.5
0.16667	42.3
0.18333	42.6
0.20000	43.0
0.21667	43.2
0.23333	43.5
0.25000	43.6
0.26667	43.6
0.28333	43.9
0.30000	43.9
0.31667	44.0
0.33333	44.0
0.35000	44.0
0.36667	44.1
0.38333	44.3
0.40000	44.3
0.41667	44.3
0.43333	44.5
0.45000	44.4
0.46667	44.4
0.48333	44.4
0.50000	44.4
0.51667	44.5
0.53333	44.5
0.55000	44.5
0.56667	44.5
0.58333	44.4
0.60000	44.5
0.61667	44.5
0.63333	44.4
0.65000	44.3
0.66667	44.4
0.68333	44.4
0.70000	44.4
0.71667	44.3
0.73333	44.4
0.75000	44.1
0.76667	44.3
0.78333	44.3
0.80000	44.1
0.81667	44.3
0.83333	44.1
0.85000	44.0
0.86667	44.1
0.88333	44.1
0.90000	44.1
0.91667	44.1
0.93333	44.0
0.95000	44.3
0.96667	43.9
0.98333	44.0
1.00000	44.0
1.01667	44.1
1.03333	44.0
1.05000	44.0
1.06667	44.1
1.08333	44.0
1.10000	44.0
1.11667	44.1
1.13333	44.0
1.15000	44.0
1.16667	44.0
1.18333	44.0
1.20000	44.0
1.21667	43.9
1.23333	44.0
1.25000	43.9
1.26667	44.0
1.28333	43.9
1.30000	44.0
1.31667	44.0
1.33333	44.0
1.35000	44.0
1.36667	43.9
1.38333	43.9
1.40000	44.0
1.41667	44.0
1.43333	43.8
1.45000	43.8
1.46667	44.0
1.48333	44.0
1.50000	44.0
1.51667	43.8
1.53333	43.8
1.55000	43.9
1.56667	43.9
1.58333	43.8
1.60000	43.9
1.61667	43.9
1.63333	43.9
1.65000	43.9
1.66667	43.8
1.68333	43.9
1.70000	43.8
1.71667	44.0
1.73333	43.9
1.75000	43.8
1.76667	43.9
1.78333	43.9
1.80000	43.9
1.81667	44.0
1.83333	43.9
1.85000	43.9
1.86667	44.0
1.88333	43.9
1.90000	43.9
1.91667	43.8
1.93333	43.8
1.95000	43.9
1.96667	43.9
1.98333	43.8
2.00000	43.9
2.01667	44.0
2.03333	43.9
2.05000	43.9
2.06667	43.9
2.08333	43.9
2.10000	44.0
2.11667	43.9
2.13333	43.9
2.15000	43.9
2.16667	43.9
2.18333	43.9
2.20000	43.9
2.21667	44.0
2.23333	43.9
2.25000	43.9
2.26667	43.9
2.28333	43.9
2.30000	43.9
2.31667	44.1
2.33333	43.9
2.35000	43.9
2.36667	43.9
2.38333	43.9
2.40000	44.0
2.41667	43.8
2.43333	44.0
2.45000	44.0
2.46667	43.9
2.48333	43.9
2.50000	43.9
2.51667	43.9
2.53333	43.9
2.55000	44.0
2.56667	43.9
2.58333	43.8
2.60000	43.9
2.61667	43.9
2.63333	43.9
2.65000	43.9
2.66667	44.0
2.68333	44.0
2.70000	43.9
2.71667	44.0
2.73333	43.9
2.75000	43.9
2.76667	43.9
2.78333	43.9
2.80000	44.0
2.81667	44.0
2.83333	44.0
2.85000	44.0
2.86667	43.8
2.88333	44.0
2.90000	44.0
2.91667	43.9
2.93333	43.9
2.95000	44.0
2.96667	43.9
2.98333	43.9
3.00000	43.9
3.01667	44.0
3.03333	44.1
3.05000	44.0
3.06667	44.0
3.08333	43.9
3.10000	44.0
3.11667	44.0
3.13333	43.9
3.15000	43.9
3.16667	44.0
3.18333	44.0
3.20000	43.9
3.21667	44.0
3.23333	44.0
3.25000	43.9
3.26667	44.0
3.28333	44.0
3.30000	44.0
3.31667	44.0
3.33333	44.0
3.35000	44.0
3.36667	44.0
3.38333	43.9
3.40000	44.0
3.41667	44.0
3.43333	44.0
3.45000	44.0
3.46667	43.9
3.48333	44.0
3.50000	44.0
3.51667	43.9
3.53333	43.9
3.55000	44.0
3.56667	44.0
3.58333	44.0
3.60000	43.9
3.61667	44.1
3.63333	43.9
3.65000	44.0
3.66667	44.0
3.68333	44.0
3.70000	44.0
3.71667	44.0
3.73333	44.0
3.75000	43.9
3.76667	44.0
3.78333	44.0
3.80000	44.0
3.81667	44.0
3.83333	44.0
3.85000	44.0
3.86667	44.1
3.88333	44.0
3.90000	44.0
3.91667	43.9
3.93333	44.1
3.95000	44.0
3.96667	44.0
3.98333	44.0
4.00000	44.0
4.01667	43.9
4.03333	44.1
4.05000	44.0
4.06667	44.0
4.08333	44.0
4.10000	44.0
4.11667	44.0
4.13333	44.0
4.15000	43.9
4.16667	44.0
4.18333	44.0
4.20000	44.0
4.21667	44.1
4.23333	44.0
4.25000	44.0
4.26667	43.9
4.28333	44.1
4.30000	44.1
4.31667	44.1
4.33333	44.0
4.35000	44.1
4.36667	44.0
4.38333	44.0
4.40000	44.1
4.41667	44.0
4.43333	44.0
4.45000	44.0
4.46667	44.0
4.48333	44.0
4.50000	44.0
4.51667	44.1
4.53333	44.0
4.55000	44.1
4.56667	44.0
4.58333	44.1
4.60000	44.0
4.61667	44.1
4.63333	44.0
4.65000	44.0
4.66667	44.1
4.68333	44.0
4.70000	44.0
4.71667	44.0
4.73333	44.0
4.75000	44.0
4.76667	44.0
4.78333	44.0
4.80000	43.9
4.81667	44.0
4.83333	44.1
4.85000	44.0
4.86667	44.3
4.88333	44.0
4.90000	44.1
4.91667	44.1
4.93333	44.0
4.95000	44.1
4.96667	44.0
4.98333	44.1
5.00000	44.1
5.01667	44.1
5.03333	43.9
5.05000	44.1
5.06667	44.1
5.08333	44.1
5.10000	44.0
5.11667	44.0
5.13333	44.0
5.15000	44.0
5.16667	44.0
5.18333	44.0
5.20000	44.1
5.21667	44.0
5.23333	44.0
5.25000	44.0
5.26667	44.0
5.28333	44.0
5.30000	44.0
5.31667	44.0
5.33333	44.3
5.35000	44.3
5.36667	44.1
5.38333	44.0
5.40000	44.0
5.41667	44.0
5.43333	44.0
5.45000	44.0
5.46667	44.1
5.48333	44.1
5.50000	44.1
5.51667	44.0
5.53333	44.1
5.55000	44.1
5.56667	44.0
5.58333	44.3
5.60000	44.1
5.61667	44.1
5.63333	44.1
5.65000	44.1
5.66667	44.0
5.68333	44.1
5.70000	44.1
5.71667	44.3
5.73333	44.1
5.75000	44.0
5.76667	44.1
5.78333	44.3
5.80000	44.3
5.81667	44.1
5.83333	44.3
5.85000	44.1
5.86667	44.1
5.88333	44.3
5.90000	44.1
5.91667	44.1
5.93333	44.1
5.95000	44.1
5.96667	44.0
5.98333	44.1
6.00000	44.1
6.01667	44.1
6.03333	44.0
6.05000	44.0
6.06667	44.0
6.08333	44.1
6.10000	44.1
6.11667	44.1
6.13333	44.3
6.15000	44.1
6.16667	44.1
6.18333	44.1
6.20000	44.0
6.21667	44.1
6.23333	44.1
6.25000	44.1
6.26667	44.1
6.28333	44.1
6.30000	44.1
6.31667	44.3
6.33333	44.3
6.35000	44.1
6.36667	44.1
6.38333	44.1
6.40000	44.1
6.41667	44.1
6.43333	44.3
6.45000	44.3
6.46667	44.3
6.48333	44.3
6.50000	44.3
6.51667	44.3
6.53333	44.3
6.55000	44.3
6.56667	44.1
6.58333	44.1
6.60000	44.1
6.61667	44.4
6.63333	44.1
6.65000	44.3
6.66667	44.1
6.68333	44.3
6.70000	44.3
6.71667	44.3
6.73333	44.1
6.75000	44.4
6.76667	44.3
6.78333	44.3
6.80000	44.3
6.81667	44.1
6.83333	44.3
6.85000	44.3
6.86667	44.4
6.88333	44.3
6.90000	44.3
6.91667	44.3
6.93333	44.3
6.95000	44.3
6.96667	44.1
6.98333	44.1
7.00000	44.1
7.01667	44.1
7.03333	44.3
7.05000	44.4
7.06667	44.3
7.08333	44.3
7.10000	44.1
7.11667	44.3
7.13333	44.4
7.15000	44.4
7.16667	44.4
7.18333	44.3
7.20000	44.3
7.21667	44.4
7.23333	44.3
7.25000	44.3
7.26667	44.3
7.28333	44.3
7.30000	44.3
7.31667	44.4
7.33333	44.4
7.35000	44.3
7.36667	44.3
7.38333	44.4
7.40000	44.3
7.41667	44.3
7.43333	44.4
7.45000	44.3
7.46667	44.3
7.48333	44.3
7.50000	44.3
7.51667	44.3
7.53333	44.3
7.55000	44.4
7.56667	44.3
7.58333	44.3
7.60000	44.3
7.61667	44.3
7.63333	44.3
7.65000	44.3
7.66667	44.1
7.68333	44.3
7.70000	44.3
7.71667	44.4
7.73333	44.3
7.75000	44.1
7.76667	44.4
7.78333	44.3
7.80000	44.4
7.81667	44.5
7.83333	44.3
7.85000	44.1
7.86667	44.4
7.88333	44.4
7.90000	44.4
7.91667	44.3
7.93333	44.4
7.95000	44.4
7.96667	44.4
7.98333	44.3
8.00000	44.4
8.01667	44.3
8.03333	44.4
8.05000	44.4
8.06667	44.4
8.08333	44.3
8.10000	44.3
8.11667	44.4
8.13333	44.5
8.15000	44.4
8.16667	44.4
8.18333	44.4
8.20000	44.4
8.21667	44.4
8.23333	44.4
8.25000	44.4
8.26667	44.4
8.28333	44.4
8.30000	44.4
8.31667	44.5
8.33333	44.3
8.35000	44.3
8.36667	44.5
8.38333	44.4
8.40000	44.4
8.41667	44.4
8.43333	44.4
8.45000	44.3
8.46667	44.4
8.48333	44.4
8.50000	44.4
8.51667	44.4
8.53333	44.3
8.55000	44.5
8.56667	44.4
8.58333	44.3
8.60000	44.4
8.61667	44.4
8.63333	44.3
8.65000	44.4
8.66667	44.4
8.68333	44.5
8.70000	44.4
8.71667	44.4
8.73333	44.3
8.75000	44.4
8.76667	44.5
8.78333	44.4
8.80000	44.4
8.81667	44.4
8.83333	44.3
8.85000	44.4
8.86667	44.4
8.88333	44.4
8.90000	44.3
8.91667	44.4
8.93333	44.4
8.95000	44.4
8.96667	44.5
8.98333	44.4
9.00000	44.5
9.01667	44.5
9.03333	44.5
9.05000	44.3
9.06667	44.4
9.08333	44.3
9.10000	44.3
9.11667	44.3
9.13333	44.4
9.15000	44.4
9.16667	44.3
9.18333	44.5
9.20000	44.5
9.21667	44.3
9.23333	44.4
9.25000	44.4
9.26667	44.4
9.28333	44.4
9.30000	44.4
9.31667	44.3
9.33333	44.3
9.35000	44.4
9.36667	44.4
9.38333	44.3
9.40000	44.4
9.41667	44.4
9.43333	44.4
9.45000	44.3
9.46667	44.3
9.48333	44.5
9.50000	44.4
9.51667	44.4
9.53333	44.4
9.55000	44.4
9.56667	44.4
9.58333	44.4
9.60000	44.4
9.61667	44.3
9.63333	44.4
9.65000	44.4
9.66667	44.3
9.68333	44.5
9.70000	44.5
9.71667	44.4
9.73333	44.4
9.75000	44.4
9.76667	44.5
9.78333	44.5
9.80000	44.4
9.81667	44.4
9.83333	44.4
9.85000	44.4
9.86667	44.5
9.88333	44.4
9.90000	44.3
9.91667	44.1
9.93333	44.3
9.95000	44.3
9.96667	44.4
9.98333	44.5
10.00000	44.5
10.01667	44.5
10.03333	44.4
10.05000	44.4
10.06667	44.4
10.08333	44.5
10.10000	44.3
10.11667	44.4
10.13333	44.4
10.15000	44.4
10.16667	44.3
10.18333	44.4
10.20000	44.3
10.21667	44.3
10.23333	44.4
10.25000	44.3
10.26667	44.5
10.28333	44.4
10.30000	44.4
10.31667	44.4
10.33333	44.4
10.35000	44.4
10.36667	44.5
10.38333	44.4
10.40000	44.3
10.41667	44.4
10.43333	44.4
10.45000	44.4
10.46667	44.4
10.48333	44.5
10.50000	44.3
10.51667	44.5
10.53333	44.5
10.55000	44.4
10.56667	44.5
10.58333	44.4
10.60000	44.4
10.61667	44.3
10.63333	44.4
10.65000	44.4
10.66667	44.4
10.68333	44.4
10.70000	44.4
10.71667	44.3
10.73333	44.4
10.75000	44.4
10.76667	44.3
10.78333	44.4
10.80000	44.3
10.81667	44.4
10.83333	44.1
10.85000	44.4
10.86667	44.4
10.88333	44.3
10.90000	44.3
10.91667	44.4
10.93333	44.4
10.95000	44.3
10.96667	44.4
10.98333	44.4
11.00000	44.3

[LC Status Trace(UV Cell Temp.)]
Interval(msec)	1000
# of Points	661
Start Time(min)	0.000
End Time(min)	11.000
Intensity Units	C
Intensity Multiplier	1
R.Time (min)	Intensity
0.00000	40.00
0.01667	40.00
0.03333	40.00
0.05000	40.00
0.06667	40.00
0.08333	39.96
0.10000	39.96
0.11667	39.95
0.13333	39.99
0.15000	40.00
0.16667	40.00
0.18333	40.05
0.20000	40.00
0.21667	40.02
0.23333	40.00
0.25000	40.00
0.26667	39.99
0.28333	40.00
0.30000	40.00
0.31667	40.03
0.33333	40.00
0.35000	40.00
0.36667	40.00
0.38333	40.00
0.40000	40.00
0.41667	40.00
0.43333	40.02
0.45000	40.00
0.46667	40.00
0.48333	40.00
0.50000	40.00
0.51667	40.00
0.53333	40.00
0.55000	40.00
0.56667	40.00
0.58333	40.02
0.60000	40.00
0.61667	40.00
0.63333	40.02
0.65000	40.00
0.66667	40.03
0.68333	40.00
0.70000	39.95
0.71667	39.99
0.73333	40.00
0.75000	40.00
0.76667	40.00
0.78333	40.05
0.80000	39.99
0.81667	40.00
0.83333	40.00
0.85000	39.95
0.86667	39.93
0.88333	40.00
0.90000	40.00
0.91667	40.00
0.93333	40.00
0.95000	40.00
0.96667	40.03
0.98333	40.00
1.00000	40.00
1.01667	39.99
1.03333	39.95
1.05000	39.93
1.06667	39.95
1.08333	39.97
1.10000	40.02
1.11667	39.99
1.13333	40.00
1.15000	40.02
1.16667	40.00
1.18333	40.00
1.20000	40.00
1.21667	40.00
1.23333	40.00
1.25000	40.00
1.26667	40.00
1.28333	40.00
1.30000	40.02
1.31667	40.00
1.33333	40.00
1.35000	39.97
1.36667	39.96
1.38333	39.99
1.40000	40.00
1.41667	40.00
1.43333	40.00
1.45000	40.00
1.46667	40.00
1.48333	40.00
1.50000	40.00
1.51667	40.00
1.53333	40.00
1.55000	40.03
1.56667	40.02
1.58333	40.00
1.60000	40.00
1.61667	40.00
1.63333	40.00
1.65000	39.96
1.66667	39.95
1.68333	40.00
1.70000	40.00
1.71667	40.03
1.73333	40.00
1.75000	40.00
1.76667	40.00
1.78333	40.00
1.80000	40.05
1.81667	40.02
1.83333	40.00
1.85000	40.00
1.86667	40.00
1.88333	40.00
1.90000	40.00
1.91667	39.99
1.93333	40.00
1.95000	39.99
1.96667	40.00
1.98333	39.98
2.00000	39.95
2.01667	39.93
2.03333	39.93
2.05000	39.97
2.06667	39.98
2.08333	39.99
2.10000	40.00
2.11667	40.00
2.13333	39.99
2.15000	40.00
2.16667	40.00
2.18333	39.95
2.20000	39.98
2.21667	39.98
2.23333	40.00
2.25000	40.00
2.26667	40.00
2.28333	40.00
2.30000	40.00
2.31667	40.02
2.33333	40.00
2.35000	40.00
2.36667	39.99
2.38333	39.99
2.40000	40.00
2.41667	39.99
2.43333	40.00
2.45000	40.00
2.46667	40.00
2.48333	40.00
2.50000	39.99
2.51667	40.00
2.53333	40.00
2.55000	39.95
2.56667	39.93
2.58333	40.00
2.60000	40.00
2.61667	40.00
2.63333	40.00
2.65000	40.02
2.66667	40.00
2.68333	40.00
2.70000	40.00
2.71667	40.00
2.73333	40.00
2.75000	40.00
2.76667	39.99
2.78333	39.93
2.80000	39.93
2.81667	40.00
2.83333	40.00
2.85000	40.00
2.86667	40.03
2.88333	40.00
2.90000	40.00
2.91667	40.00
2.93333	40.00
2.95000	40.00
2.96667	40.00
2.98333	40.02
3.00000	40.00
3.01667	40.00
3.03333	40.00
3.05000	40.00
3.06667	40.00
3.08333	39.98
3.10000	39.99
3.11667	39.98
3.13333	39.99
3.15000	39.97
3.16667	39.93
3.18333	39.96
3.20000	39.93
3.21667	39.96
3.23333	40.00
3.25000	40.00
3.26667	40.00
3.28333	39.99
3.30000	40.02
3.31667	40.02
3.33333	40.00
3.35000	40.00
3.36667	40.03
3.38333	40.05
3.40000	40.03
3.41667	39.99
3.43333	40.00
3.45000	40.00
3.46667	40.00
3.48333	40.05
3.50000	40.03
3.51667	40.02
3.53333	40.00
3.55000	40.00
3.56667	39.99
3.58333	40.00
3.60000	39.99
3.61667	39.93
3.63333	39.95
3.65000	39.99
3.66667	40.00
3.68333	40.00
3.70000	40.00
3.71667	40.00
3.73333	40.00
3.75000	40.02
3.76667	40.00
3.78333	40.00
3.80000	40.00
3.81667	40.00
3.83333	40.00
3.85000	40.03
3.86667	40.00
3.88333	40.00
3.90000	40.00
3.91667	39.99
3.93333	40.00
3.95000	40.00
3.96667	40.00
3.98333	40.00
4.00000	40.00
4.01667	40.02
4.03333	40.00
4.05000	39.99
4.06667	39.99
4.08333	40.00
4.10000	40.00
4.11667	40.02
4.13333	40.00
4.15000	40.00
4.16667	39.99
4.18333	39.98
4.20000	39.97
4.21667	39.97
4.23333	39.99
4.25000	39.99
4.26667	40.02
4.28333	40.00
4.30000	40.00
4.31667	40.00
4.33333	40.00
4.35000	39.99
4.36667	40.00
4.38333	40.00
4.40000	40.03
4.41667	40.00
4.43333	40.00
4.45000	40.00
4.46667	40.00
4.48333	40.00
4.50000	40.00
4.51667	40.00
4.53333	39.99
4.55000	39.99
4.56667	40.00
4.58333	40.00
4.60000	40.00
4.61667	40.00
4.63333	40.00
4.65000	40.02
4.66667	39.99
4.68333	40.00
4.70000	40.00
4.71667	40.00
4.73333	40.00
4.75000	39.93
4.76667	39.93
4.78333	39.97
4.80000	39.97
4.81667	39.95
4.83333	39.98
4.85000	40.00
4.86667	40.00
4.88333	40.00
4.90000	40.00
4.91667	39.99
4.93333	40.00
4.95000	39.99
4.96667	40.00
4.98333	40.00
5.00000	40.00
5.01667	40.02
5.03333	40.00
5.05000	40.02
5.06667	40.00
5.08333	40.00
5.10000	40.00
5.11667	40.02
5.13333	40.00
5.15000	40.00
5.16667	40.00
5.18333	39.99
5.20000	40.00
5.21667	40.00
5.23333	40.00
5.25000	39.99
5.26667	39.99
5.28333	40.00
5.30000	40.00
5.31667	40.00
5.33333	40.00
5.35000	40.00
5.36667	40.02
5.38333	40.00
5.40000	40.00
5.41667	40.00
5.43333	40.00
5.45000	40.00
5.46667	40.00
5.48333	40.00
5.50000	40.00
5.51667	40.00
5.53333	39.99
5.55000	40.00
5.56667	40.00
5.58333	40.00
5.60000	39.93
5.61667	39.96
5.63333	39.98
5.65000	40.00
5.66667	40.02
5.68333	40.00
5.70000	40.00
5.71667	40.00
5.73333	39.99
5.75000	40.00
5.76667	39.99
5.78333	39.99
5.80000	40.02
5.81667	40.00
5.83333	40.00
5.85000	39.97
5.86667	39.98
5.88333	39.99
5.90000	39.95
5.91667	39.93
5.93333	39.93
5.95000	39.93
5.96667	39.98
5.98333	39.98
6.00000	39.97
6.01667	39.98
6.03333	39.97
6.05000	39.93
6.06667	39.93
6.08333	39.93
6.10000	39.93
6.11667	39.93
6.13333	39.95
6.15000	39.93
6.16667	39.97
6.18333	39.95
6.20000	39.96
6.21667	39.95
6.23333	39.93
6.25000	39.93
6.26667	39.97
6.28333	40.00
6.30000	39.99
6.31667	39.99
6.33333	40.00
6.35000	40.00
6.36667	40.02
6.38333	40.02
6.40000	40.00
6.41667	40.00
6.43333	40.00
6.45000	40.00
6.46667	40.00
6.48333	40.00
6.50000	40.00
6.51667	40.02
6.53333	40.00
6.55000	40.00
6.56667	40.00
6.58333	39.99
6.60000	40.00
6.61667	39.99
6.63333	40.00
6.65000	40.02
6.66667	40.00
6.68333	39.96
6.70000	39.96
6.71667	39.96
6.73333	39.95
6.75000	39.95
6.76667	39.93
6.78333	40.00
6.80000	40.00
6.81667	39.99
6.83333	40.00
6.85000	40.00
6.86667	40.00
6.88333	39.99
6.90000	40.00
6.91667	40.00
6.93333	40.00
6.95000	40.00
6.96667	40.00
6.98333	39.95
7.00000	39.95
7.01667	40.05
7.03333	40.00
7.05000	40.02
7.06667	40.02
7.08333	40.02
7.10000	40.00
7.11667	40.00
7.13333	40.00
7.15000	40.00
7.16667	39.99
7.18333	39.95
7.20000	40.00
7.21667	40.00
7.23333	40.00
7.25000	40.00
7.26667	40.00
7.28333	39.99
7.30000	39.95
7.31667	39.99
7.33333	40.02
7.35000	40.00
7.36667	40.00
7.38333	40.00
7.40000	40.00
7.41667	40.00
7.43333	39.98
7.45000	39.99
7.46667	40.00
7.48333	40.00
7.50000	40.02
7.51667	40.06
7.53333	40.00
7.55000	40.00
7.56667	40.00
7.58333	40.00
7.60000	40.00
7.61667	40.00
7.63333	40.03
7.65000	40.00
7.66667	39.97
7.68333	39.96
7.70000	39.95
7.71667	39.96
7.73333	39.97
7.75000	40.00
7.76667	40.00
7.78333	39.96
7.80000	39.93
7.81667	39.95
7.83333	39.98
7.85000	40.00
7.86667	40.00
7.88333	40.00
7.90000	40.00
7.91667	40.00
7.93333	40.00
7.95000	40.00
7.96667	40.00
7.98333	39.97
8.00000	40.00
8.01667	40.00
8.03333	40.00
8.05000	40.00
8.06667	40.00
8.08333	40.02
8.10000	40.00
8.11667	39.99
8.13333	40.00
8.15000	40.07
8.16667	40.08
8.18333	40.00
8.20000	40.05
8.21667	40.00
8.23333	40.00
8.25000	40.02
8.26667	39.99
8.28333	39.96
8.30000	39.99
8.31667	40.00
8.33333	40.00
8.35000	39.99
8.36667	39.99
8.38333	40.00
8.40000	40.00
8.41667	40.00
8.43333	40.02
8.45000	40.00
8.46667	40.00
8.48333	39.97
8.50000	39.95
8.51667	39.95
8.53333	39.99
8.55000	40.00
8.56667	40.02
8.58333	40.00
8.60000	40.00
8.61667	40.00
8.63333	39.99
8.65000	40.00
8.66667	40.00
8.68333	40.00
8.70000	40.02
8.71667	40.00
8.73333	40.02
8.75000	40.02
8.76667	40.00
8.78333	39.99
8.80000	40.00
8.81667	40.00
8.83333	40.00
8.85000	40.00
8.86667	40.00
8.88333	40.00
8.90000	40.00
8.91667	40.00
8.93333	40.00
8.95000	40.00
8.96667	40.00
8.98333	40.00
9.00000	40.00
9.01667	39.99
9.03333	40.03
9.05000	40.00
9.06667	40.00
9.08333	40.00
9.10000	40.00
9.11667	40.02
9.13333	40.00
9.15000	39.99
9.16667	40.00
9.18333	39.95
9.20000	39.93
9.21667	39.99
9.23333	40.00
9.25000	40.00
9.26667	40.00
9.28333	40.00
9.30000	40.00
9.31667	40.00
9.33333	39.99
9.35000	39.99
9.36667	39.96
9.38333	40.03
9.40000	40.00
9.41667	40.00
9.43333	39.99
9.45000	40.00
9.46667	40.00
9.48333	40.00
9.50000	40.00
9.51667	40.00
9.53333	40.00
9.55000	39.99
9.56667	39.95
9.58333	39.95
9.60000	40.00
9.61667	40.00
9.63333	40.00
9.65000	40.00
9.66667	40.00
9.68333	40.00
9.70000	40.00
9.71667	40.00
9.73333	39.97
9.75000	39.96
9.76667	39.99
9.78333	40.00
9.80000	40.02
9.81667	40.00
9.83333	39.99
9.85000	40.00
9.86667	40.00
9.88333	40.00
9.90000	40.00
9.91667	40.00
9.93333	40.00
9.95000	40.00
9.96667	40.02
9.98333	39.99
10.00000	39.93
10.01667	39.93
10.03333	39.97
10.05000	39.98
10.06667	40.00
10.08333	40.02
10.10000	40.00
10.11667	40.02
10.13333	40.00
10.15000	40.00
10.16667	40.00
10.18333	40.00
10.20000	40.00
10.21667	39.99
10.23333	39.96
10.25000	39.95
10.26667	39.99
10.28333	39.99
10.30000	40.00
10.31667	40.00
10.33333	40.00
10.35000	40.03
10.36667	40.00
10.38333	40.00
10.40000	39.99
10.41667	40.00
10.43333	40.00
10.45000	40.00
10.46667	40.00
10.48333	39.99
10.50000	40.00
10.51667	40.00
10.53333	40.00
10.55000	39.99
10.56667	39.95
10.58333	39.97
10.60000	39.93
10.61667	39.93
10.63333	39.97
10.65000	39.97
10.66667	39.97
10.68333	39.97
10.70000	39.99
10.71667	39.99
10.73333	39.99
10.75000	39.97
10.76667	39.99
10.78333	39.98
10.80000	39.98
10.81667	39.98
10.83333	39.96
10.85000	39.97
10.86667	39.95
10.88333	39.99
10.90000	39.99
10.91667	40.00
10.93333	40.00
10.95000	40.00
10.96667	39.99
10.98333	39.99
11.00000	40.02

[LC Status Trace(RF B Cell Temp.)]
Interval(msec)	1000
# of Points	661
Start Time(min)	0.000
End Time(min)	11.000
Intensity Units	C
Intensity Multiplier	1
R.Time (min)	Intensity
0.00000	30.07
0.01667	30.07
0.03333	30.07
0.05000	30.07
0.06667	30.07
0.08333	30.07
0.10000	30.07
0.11667	30.07
0.13333	30.07
0.15000	30.07
0.16667	30.07
0.18333	30.06
0.20000	30.06
0.21667	30.06
0.23333	30.06
0.25000	30.06
0.26667	30.06
0.28333	30.06
0.30000	30.06
0.31667	30.06
0.33333	30.06
0.35000	30.06
0.36667	30.06
0.38333	30.06
0.40000	30.06
0.41667	30.06
0.43333	30.06
0.45000	30.06
0.46667	30.06
0.48333	30.06
0.50000	30.06
0.51667	30.06
0.53333	30.06
0.55000	30.06
0.56667	30.06
0.58333	30.06
0.60000	30.06
0.61667	30.06
0.63333	30.05
0.65000	30.05
0.66667	30.05
0.68333	30.05
0.70000	30.05
0.71667	30.05
0.73333	30.05
0.75000	30.05
0.76667	30.05
0.78333	30.05
0.80000	30.05
0.81667	30.05
0.83333	30.05
0.85000	30.05
0.86667	30.05
0.88333	30.05
0.90000	30.05
0.91667	30.05
0.93333	30.05
0.95000	30.05
0.96667	30.05
0.98333	30.05
1.00000	30.05
1.01667	30.05
1.03333	30.05
1.05000	30.05
1.06667	30.05
1.08333	30.05
1.10000	30.05
1.11667	30.05
1.13333	30.05
1.15000	30.05
1.16667	30.05
1.18333	30.05
1.20000	30.05
1.21667	30.05
1.23333	30.05
1.25000	30.05
1.26667	30.05
1.28333	30.05
1.30000	30.05
1.31667	30.05
1.33333	30.05
1.35000	30.05
1.36667	30.05
1.38333	30.05
1.40000	30.05
1.41667	30.05
1.43333	30.05
1.45000	30.05
1.46667	30.05
1.48333	30.05
1.50000	30.05
1.51667	30.05
1.53333	30.05
1.55000	30.05
1.56667	30.05
1.58333	30.05
1.60000	30.05
1.61667	30.05
1.63333	30.05
1.65000	30.05
1.66667	30.05
1.68333	30.05
1.70000	30.05
1.71667	30.05
1.73333	30.05
1.75000	30.05
1.76667	30.05
1.78333	30.05
1.80000	30.05
1.81667	30.05
1.83333	30.05
1.85000	30.05
1.86667	30.05
1.88333	30.05
1.90000	30.05
1.91667	30.05
1.93333	30.05
1.95000	30.05
1.96667	30.05
1.98333	30.05
2.00000	30.05
2.01667	30.05
2.03333	30.05
2.05000	30.05
2.06667	30.05
2.08333	30.05
2.10000	30.05
2.11667	30.05
2.13333	30.05
2.15000	30.05
2.16667	30.05
2.18333	30.05
2.20000	30.05
2.21667	30.05
2.23333	30.05
2.25000	30.05
2.26667	30.05
2.28333	30.05
2.30000	30.05
2.31667	30.05
2.33333	30.05
2.35000	30.06
2.36667	30.06
2.38333	30.06
2.40000	30.06
2.41667	30.06
2.43333	30.06
2.45000	30.06
2.46667	30.06
2.48333	30.06
2.50000	30.06
2.51667	30.06
2.53333	30.06
2.55000	30.06
2.56667	30.06
2.58333	30.06
2.60000	30.06
2.61667	30.06
2.63333	30.06
2.65000	30.06
2.66667	30.06
2.68333	30.06
2.70000	30.06
2.71667	30.06
2.73333	30.06
2.75000	30.06
2.76667	30.05
2.78333	30.05
2.80000	30.05
2.81667	30.05
2.83333	30.05
2.85000	30.05
2.86667	30.05
2.88333	30.05
2.90000	30.05
2.91667	30.05
2.93333	30.05
2.95000	30.05
2.96667	30.05
2.98333	30.05
3.00000	30.05
3.01667	30.05
3.03333	30.05
3.05000	30.05
3.06667	30.05
3.08333	30.05
3.10000	30.05
3.11667	30.05
3.13333	30.05
3.15000	30.05
3.16667	30.05
3.18333	30.05
3.20000	30.05
3.21667	30.05
3.23333	30.05
3.25000	30.05
3.26667	30.05
3.28333	30.05
3.30000	30.05
3.31667	30.05
3.33333	30.05
3.35000	30.05
3.36667	30.05
3.38333	30.05
3.40000	30.05
3.41667	30.05
3.43333	30.05
3.45000	30.05
3.46667	30.05
3.48333	30.05
3.50000	30.05
3.51667	30.05
3.53333	30.05
3.55000	30.05
3.56667	30.05
3.58333	30.04
3.60000	30.04
3.61667	30.04
3.63333	30.04
3.65000	30.04
3.66667	30.04
3.68333	30.04
3.70000	30.04
3.71667	30.04
3.73333	30.04
3.75000	30.04
3.76667	30.04
3.78333	30.04
3.80000	30.04
3.81667	30.04
3.83333	30.04
3.85000	30.04
3.86667	30.04
3.88333	30.04
3.90000	30.04
3.91667	30.04
3.93333	30.04
3.95000	30.04
3.96667	30.04
3.98333	30.04
4.00000	30.04
4.01667	30.04
4.03333	30.04
4.05000	30.04
4.06667	30.04
4.08333	30.04
4.10000	30.04
4.11667	30.04
4.13333	30.04
4.15000	30.04
4.16667	30.04
4.18333	30.04
4.20000	30.04
4.21667	30.04
4.23333	30.04
4.25000	30.04
4.26667	30.04
4.28333	30.04
4.30000	30.04
4.31667	30.04
4.33333	30.04
4.35000	30.04
4.36667	30.04
4.38333	30.04
4.40000	30.04
4.41667	30.04
4.43333	30.04
4.45000	30.04
4.46667	30.04
4.48333	30.04
4.50000	30.04
4.51667	30.04
4.53333	30.04
4.55000	30.04
4.56667	30.04
4.58333	30.04
4.60000	30.04
4.61667	30.04
4.63333	30.04
4.65000	30.04
4.66667	30.04
4.68333	30.04
4.70000	30.04
4.71667	30.04
4.73333	30.04
4.75000	30.04
4.76667	30.04
4.78333	30.04
4.80000	30.04
4.81667	30.04
4.83333	30.04
4.85000	30.04
4.86667	30.04
4.88333	30.04
4.90000	30.04
4.91667	30.04
4.93333	30.04
4.95000	30.04
4.96667	30.04
4.98333	30.04
5.00000	30.04
5.01667	30.04
5.03333	30.04
5.05000	30.04
5.06667	30.04
5.08333	30.04
5.10000	30.04
5.11667	30.04
5.13333	30.04
5.15000	30.04
5.16667	30.04
5.18333	30.04
5.20000	30.04
5.21667	30.04
5.23333	30.04
5.25000	30.04
5.26667	30.04
5.28333	30.04
5.30000	30.04
5.31667	30.04
5.33333	30.04
5.35000	30.04
5.36667	30.04
5.38333	30.04
5.40000	30.04
5.41667	30.04
5.43333	30.04
5.45000	30.04
5.46667	30.04
5.48333	30.04
5.50000	30.04
5.51667	30.03
5.53333	30.03
5.55000	30.03
5.56667	30.03
5.58333	30.03
5.60000	30.03
5.61667	30.03
5.63333	30.03
5.65000	30.03
5.66667	30.03
5.68333	30.03
5.70000	30.03
5.71667	30.03
5.73333	30.03
5.75000	30.03
5.76667	30.03
5.78333	30.04
5.80000	30.04
5.81667	30.04
5.83333	30.04
5.85000	30.04
5.86667	30.04
5.88333	30.04
5.90000	30.04
5.91667	30.04
5.93333	30.04
5.95000	30.04
5.96667	30.04
5.98333	30.04
6.00000	30.04
6.01667	30.04
6.03333	30.04
6.05000	30.04
6.06667	30.04
6.08333	30.04
6.10000	30.04
6.11667	30.04
6.13333	30.04
6.15000	30.04
6.16667	30.04
6.18333	30.04
6.20000	30.04
6.21667	30.04
6.23333	30.04
6.25000	30.04
6.26667	30.04
6.28333	30.04
6.30000	30.04
6.31667	30.04
6.33333	30.04
6.35000	30.04
6.36667	30.04
6.38333	30.04
6.40000	30.04
6.41667	30.04
6.43333	30.04
6.45000	30.04
6.46667	30.04
6.48333	30.04
6.50000	30.04
6.51667	30.04
6.53333	30.03
6.55000	30.03
6.56667	30.03
6.58333	30.03
6.60000	30.03
6.61667	30.03
6.63333	30.03
6.65000	30.03
6.66667	30.03
6.68333	30.03
6.70000	30.03
6.71667	30.03
6.73333	30.03
6.75000	30.03
6.76667	30.03
6.78333	30.03
6.80000	30.03
6.81667	30.03
6.83333	30.03
6.85000	30.03
6.86667	30.03
6.88333	30.03
6.90000	30.03
6.91667	30.03
6.93333	30.03
6.95000	30.03
6.96667	30.03
6.98333	30.03
7.00000	30.04
7.01667	30.04
7.03333	30.04
7.05000	30.04
7.06667	30.04
7.08333	30.04
7.10000	30.04
7.11667	30.04
7.13333	30.04
7.15000	30.04
7.16667	30.04
7.18333	30.04
7.20000	30.04
7.21667	30.04
7.23333	30.04
7.25000	30.04
7.26667	30.04
7.28333	30.04
7.30000	30.04
7.31667	30.04
7.33333	30.04
7.35000	30.04
7.36667	30.04
7.38333	30.04
7.40000	30.04
7.41667	30.04
7.43333	30.04
7.45000	30.04
7.46667	30.04
7.48333	30.04
7.50000	30.04
7.51667	30.04
7.53333	30.04
7.55000	30.04
7.56667	30.04
7.58333	30.04
7.60000	30.04
7.61667	30.04
7.63333	30.04
7.65000	30.04
7.66667	30.03
7.68333	30.03
7.70000	30.03
7.71667	30.03
7.73333	30.03
7.75000	30.03
7.76667	30.03
7.78333	30.03
7.80000	30.03
7.81667	30.03
7.83333	30.03
7.85000	30.03
7.86667	30.03
7.88333	30.03
7.90000	30.03
7.91667	30.03
7.93333	30.03
7.95000	30.03
7.96667	30.03
7.98333	30.03
8.00000	30.03
8.01667	30.03
8.03333	30.03
8.05000	30.04
8.06667	30.04
8.08333	30.04
8.10000	30.04
8.11667	30.04
8.13333	30.04
8.15000	30.04
8.16667	30.04
8.18333	30.04
8.20000	30.04
8.21667	30.04
8.23333	30.04
8.25000	30.04
8.26667	30.04
8.28333	30.04
8.30000	30.04
8.31667	30.04
8.33333	30.04
8.35000	30.04
8.36667	30.04
8.38333	30.04
8.40000	30.04
8.41667	30.04
8.43333	30.04
8.45000	30.04
8.46667	30.04
8.48333	30.04
8.50000	30.04
8.51667	30.04
8.53333	30.04
8.55000	30.04
8.56667	30.04
8.58333	30.04
8.60000	30.04
8.61667	30.04
8.63333	30.04
8.65000	30.04
8.66667	30.04
8.68333	30.04
8.70000	30.04
8.71667	30.04
8.73333	30.04
8.75000	30.04
8.76667	30.04
8.78333	30.04
8.80000	30.04
8.81667	30.04
8.83333	30.04
8.85000	30.04
8.86667	30.04
8.88333	30.04
8.90000	30.04
8.91667	30.04
8.93333	30.04
8.95000	30.04
8.96667	30.04
8.98333	30.04
9.00000	30.04
9.01667	30.04
9.03333	30.04
9.05000	30.04
9.06667	30.04
9.08333	30.04
9.10000	30.04
9.11667	30.04
9.13333	30.04
9.15000	30.04
9.16667	30.04
9.18333	30.04
9.20000	30.04
9.21667	30.04
9.23333	30.04
9.25000	30.04
9.26667	30.04
9.28333	30.04
9.30000	30.04
9.31667	30.04
9.33333	30.04
9.35000	30.04
9.36667	30.04
9.38333	30.04
9.40000	30.04
9.41667	30.04
9.43333	30.04
9.45000	30.04
9.46667	30.04
9.48333	30.04
9.50000	30.04
9.51667	30.04
9.53333	30.04
9.55000	30.04
9.56667	30.04
9.58333	30.04
9.60000	30.04
9.61667	30.04
9.63333	30.04
9.65000	30.04
9.66667	30.04
9.68333	30.04
9.70000	30.04
9.71667	30.04
9.73333	30.04
9.75000	30.04
9.76667	30.04
9.78333	30.04
9.80000	30.04
9.81667	30.04
9.83333	30.04
9.85000	30.04
9.86667	30.04
9.88333	30.04
9.90000	30.04
9.91667	30.04
9.93333	30.04
9.95000	30.04
9.96667	30.04
9.98333	30.04
10.00000	30.04
10.01667	30.04
10.03333	30.04
10.05000	30.04
10.06667	30.04
10.08333	30.04
10.10000	30.04
10.11667	30.04
10.13333	30.04
10.15000	30.04
10.16667	30.04
10.18333	30.04
10.20000	30.04
10.21667	30.04
10.23333	30.04
10.25000	30.04
10.26667	30.04
10.28333	30.04
10.30000	30.04
10.31667	30.04
10.33333	30.04
10.35000	30.04
10.36667	30.04
10.38333	30.04
10.40000	30.04
10.41667	30.04
10.43333	30.04
10.45000	30.04
10.46667	30.04
10.48333	30.04
10.50000	30.04
10.51667	30.04
10.53333	30.04
10.55000	30.04
10.56667	30.04
10.58333	30.04
10.60000	30.04
10.61667	30.04
10.63333	30.04
10.65000	30.04
10.66667	30.05
10.68333	30.05
10.70000	30.05
10.71667	30.05
10.73333	30.05
10.75000	30.05
10.76667	30.05
10.78333	30.05
10.80000	30.05
10.81667	30.05
10.83333	30.05
10.85000	30.05
10.86667	30.05
10.88333	30.05
10.90000	30.05
10.91667	30.05
10.93333	30.05
10.95000	30.05
10.96667	30.05
10.98333	30.05
11.00000	30.05

[Fraction Collection Report]
# of Fractions	0

