[Header]
Application Name	LCsolution
Version	1.25
Data File Name	D:\1F-FSEC\140725ayase_166_74_21.lcd
Output Date	2014/07/28
Output Time	11:34:39

[File Information]
Type	Data File
Generated	2014/07/26 8:22:25
Generated by	System Administrator
Modified	2014/07/26 8:33:52
Modified by	System Administrator

[Sample Information]
Operator Name	System Administrator
Acquired	2014/07/26 8:22:49
Sample Type	0:Unknown
Level	0
Sample Name	166_74
Sample ID	
ISTD Amount 1	1
ISTD Amount 2	1
ISTD Amount 3	1
ISTD Amount 4	1
ISTD Amount 5	1
ISTD Amount 6	1
ISTD Amount 7	1
ISTD Amount 8	1
ISTD Amount 9	1
ISTD Amount 10	1
ISTD Amount 11	1
ISTD Amount 12	1
ISTD Amount 13	1
ISTD Amount 14	1
ISTD Amount 15	1
ISTD Amount 16	1
ISTD Amount 17	1
ISTD Amount 18	1
ISTD Amount 19	1
ISTD Amount 20	1
ISTD Amount 21	1
ISTD Amount 22	1
ISTD Amount 23	1
ISTD Amount 24	1
ISTD Amount 25	1
ISTD Amount 26	1
ISTD Amount 27	1
ISTD Amount 28	1
ISTD Amount 29	1
ISTD Amount 30	1
ISTD Amount 31	1
ISTD Amount 32	1
Sample Amount	1
Dilution Factor	1
Vial#	5
Injection Volume	50

[Original Files]
Data File	D:\1F-FSEC\140725ayase_166_74_21.lcd
Method File	D:\1F-FSEC\2-B-P3NTA_miniINC_0.36_11m.lcm
Batch File	D:\1F-FSEC\140725ayase.lcb
Report Format File	C:\LabSolutions\LCsolution\System\Default.lcr
Tuning File	

[File Description]


[Configuration]
# of Detectors	2
Detector ID	Detector A	Detector B
Detector Name	åüèoäÌA	åüèoäÌB
# of Channels	1	1

[Peak Table(Detector A-Ch1)]
# of Peaks	6
Peak#	R.Time	I.Time	F.Time	Area	Height	A/H	Conc.	Mark	ID#	Name	k'	Plate #	Plate Ht.	Tailing	Resolution	Sep.Factor	Conc. %	Norm Conc.
1	1.436	0.700	2.608	3504723	89010	39.3740	0.0000	   			0.000	30	4918.430	1.209	0.000	0.000	0.0000	0.0000
2	3.522	2.808	4.192	11095251	283757	39.1010	0.0000	   			1.453	177	845.287	0.000	1.989	0.000	0.0000	0.0000
3	4.356	4.192	5.125	6428717	146138	43.9910	0.0000	 V 			2.034	14	11106.364	0.000	0.288	1.400	0.0000	0.0000
4	6.626	5.125	7.200	35984371	498605	72.1700	0.0000	 V 			3.614	162	924.188	0.000	0.665	1.777	0.0000	0.0000
5	8.131	7.200	8.875	40831800	684928	59.6150	0.0000	 V 			4.662	394	380.307	0.000	0.810	1.290	0.0000	0.0000
6	9.527	8.875	10.967	18059679	294088	61.4090	0.0000	 V 			5.635	564	266.079	0.000	0.861	1.209	0.0000	0.0000

[Peak Table(Detector B-Ch1)]
# of Peaks	2
Peak#	R.Time	I.Time	F.Time	Area	Height	A/H	Conc.	Mark	ID#	Name	k'	Plate #	Plate Ht.	Tailing	Resolution	Sep.Factor	Conc. %	Norm Conc.
1	4.787	3.450	6.758	12695385	221858	57.2230	0.0000	   			0.000	259	578.110	1.272	0.000	0.000	0.0000	0.0000
2	7.876	6.758	10.967	91394293	1568060	58.2850	0.0000	 V 			0.645	562	266.987	1.936	2.454	0.000	0.0000	0.0000

[Peak Table(PDA-Ch1)]
# of Peaks	0

[Compound Results(Detector A)]
# of IDs	0

[Compound Results(Detector B)]
# of IDs	0

[Compound Results(PDA)]
# of IDs	0

[Group Results(Detector A)]
# of Groups	0

[Group Results(Detector B)]
# of Groups	0

[Group Results(PDA)]
# of Groups	0

[LC Chromatogram(Detector A-Ch1)]
Interval(msec)	500
# of Points	1321
Start Time(min)	0.000
End Time(min)	11.000
Intensity Units	mV
Intensity Multiplier	0.001
Wavelength(nm)	280
R.Time (min)	Intensity
0.00000	-11375
0.00833	-11375
0.01667	-2816
0.02500	-104
0.03333	-189
0.04167	-354
0.05000	-517
0.05833	-677
0.06667	-840
0.07500	-1003
0.08333	-1167
0.09167	-1335
0.10000	-1503
0.10833	-1673
0.11667	-1844
0.12500	-2017
0.13333	-2191
0.14167	-2364
0.15000	-2539
0.15833	-2713
0.16667	-2886
0.17500	-3059
0.18333	-3230
0.19167	-3398
0.20000	-3563
0.20833	-3726
0.21667	-3889
0.22500	-4050
0.23333	-4209
0.24167	-4369
0.25000	-4528
0.25833	-4684
0.26667	-4836
0.27500	-4987
0.28333	-5138
0.29167	-5289
0.30000	-5439
0.30833	-5590
0.31667	-5740
0.32500	-5891
0.33333	-6040
0.34167	-6186
0.35000	-6330
0.35833	-6473
0.36667	-6613
0.37500	-6752
0.38333	-6888
0.39167	-7022
0.40000	-7152
0.40833	-7279
0.41667	-7403
0.42500	-7524
0.43333	-7643
0.44167	-7758
0.45000	-7872
0.45833	-7982
0.46667	-8091
0.47500	-8196
0.48333	-8300
0.49167	-8402
0.50000	-8501
0.50833	-8599
0.51667	-8695
0.52500	-8789
0.53333	-8880
0.54167	-8966
0.55000	-9049
0.55833	-9126
0.56667	-9202
0.57500	-9274
0.58333	-9346
0.59167	-9413
0.60000	-9476
0.60833	-9535
0.61667	-9589
0.62500	-9641
0.63333	-9687
0.64167	-9728
0.65000	-9764
0.65833	-9794
0.66667	-9818
0.67500	-9836
0.68333	-9849
0.69167	-9855
0.70000	-9854
0.70833	-9845
0.71667	-9828
0.72500	-9800
0.73333	-9762
0.74167	-9715
0.75000	-9657
0.75833	-9587
0.76667	-9505
0.77500	-9410
0.78333	-9301
0.79167	-9177
0.80000	-9038
0.80833	-8883
0.81667	-8710
0.82500	-8516
0.83333	-8299
0.84167	-8062
0.85000	-7802
0.85833	-7516
0.86667	-7205
0.87500	-6868
0.88333	-6500
0.89167	-6100
0.90000	-5665
0.90833	-5195
0.91667	-4690
0.92500	-4146
0.93333	-3561
0.94167	-2934
0.95000	-2265
0.95833	-1549
0.96667	-784
0.97500	32
0.98333	896
0.99167	1812
1.00000	2782
1.00833	3805
1.01667	4879
1.02500	6010
1.03333	7196
1.04167	8438
1.05000	9738
1.05833	11093
1.06667	12503
1.07500	13965
1.08333	15479
1.09167	17044
1.10000	18659
1.10833	20321
1.11667	22029
1.12500	23778
1.13333	25563
1.14167	27382
1.15000	29231
1.15833	31108
1.16667	33009
1.17500	34927
1.18333	36858
1.19167	38795
1.20000	40735
1.20833	42674
1.21667	44605
1.22500	46523
1.23333	48422
1.24167	50296
1.25000	52139
1.25833	53945
1.26667	55710
1.27500	57430
1.28333	59098
1.29167	60707
1.30000	62253
1.30833	63731
1.31667	65137
1.32500	66470
1.33333	67723
1.34167	68893
1.35000	69978
1.35833	70973
1.36667	71876
1.37500	72686
1.38333	73402
1.39167	74024
1.40000	74547
1.40833	74971
1.41667	75296
1.42500	75521
1.43333	75648
1.44167	75679
1.45000	75613
1.45833	75454
1.46667	75200
1.47500	74857
1.48333	74424
1.49167	73904
1.50000	73301
1.50833	72615
1.51667	71849
1.52500	71008
1.53333	70096
1.54167	69118
1.55000	68076
1.55833	66973
1.56667	65813
1.57500	64602
1.58333	63344
1.59167	62043
1.60000	60699
1.60833	59317
1.61667	57901
1.62500	56456
1.63333	54987
1.64167	53495
1.65000	51985
1.65833	50460
1.66667	48923
1.67500	47375
1.68333	45822
1.69167	44268
1.70000	42714
1.70833	41163
1.71667	39617
1.72500	38076
1.73333	36544
1.74167	35024
1.75000	33519
1.75833	32030
1.76667	30560
1.77500	29110
1.78333	27678
1.79167	26267
1.80000	24879
1.80833	23515
1.81667	22177
1.82500	20864
1.83333	19577
1.84167	18317
1.85000	17085
1.85833	15881
1.86667	14704
1.87500	13555
1.88333	12434
1.89167	11343
1.90000	10281
1.90833	9247
1.91667	8241
1.92500	7262
1.93333	6313
1.94167	5391
1.95000	4496
1.95833	3629
1.96667	2786
1.97500	1969
1.98333	1177
1.99167	414
2.00000	-325
2.00833	-1039
2.01667	-1730
2.02500	-2398
2.03333	-3043
2.04167	-3665
2.05000	-4266
2.05833	-4847
2.06667	-5408
2.07500	-5949
2.08333	-6472
2.09167	-6976
2.10000	-7461
2.10833	-7928
2.11667	-8380
2.12500	-8816
2.13333	-9236
2.14167	-9639
2.15000	-10028
2.15833	-10404
2.16667	-10763
2.17500	-11109
2.18333	-11442
2.19167	-11765
2.20000	-12075
2.20833	-12375
2.21667	-12665
2.22500	-12943
2.23333	-13210
2.24167	-13467
2.25000	-13713
2.25833	-13951
2.26667	-14181
2.27500	-14402
2.28333	-14615
2.29167	-14821
2.30000	-15019
2.30833	-15209
2.31667	-15394
2.32500	-15572
2.33333	-15744
2.34167	-15908
2.35000	-16064
2.35833	-16216
2.36667	-16362
2.37500	-16501
2.38333	-16636
2.39167	-16769
2.40000	-16896
2.40833	-17018
2.41667	-17136
2.42500	-17249
2.43333	-17356
2.44167	-17458
2.45000	-17557
2.45833	-17654
2.46667	-17747
2.47500	-17836
2.48333	-17923
2.49167	-18007
2.50000	-18088
2.50833	-18165
2.51667	-18239
2.52500	-18310
2.53333	-18379
2.54167	-18446
2.55000	-18510
2.55833	-18570
2.56667	-18627
2.57500	-18682
2.58333	-18736
2.59167	-18785
2.60000	-18830
2.60833	-18872
2.61667	-18910
2.62500	-18949
2.63333	-18987
2.64167	-19023
2.65000	-19056
2.65833	-19086
2.66667	-19116
2.67500	-19143
2.68333	-19168
2.69167	-19189
2.70000	-19207
2.70833	-19223
2.71667	-19236
2.72500	-19247
2.73333	-19255
2.74167	-19262
2.75000	-19266
2.75833	-19267
2.76667	-19265
2.77500	-19257
2.78333	-19247
2.79167	-19234
2.80000	-19221
2.80833	-19203
2.81667	-19178
2.82500	-19149
2.83333	-19115
2.84167	-19078
2.85000	-19036
2.85833	-18993
2.86667	-18944
2.87500	-18887
2.88333	-18824
2.89167	-18756
2.90000	-18681
2.90833	-18597
2.91667	-18506
2.92500	-18406
2.93333	-18299
2.94167	-18185
2.95000	-18064
2.95833	-17934
2.96667	-17794
2.97500	-17644
2.98333	-17479
2.99167	-17299
3.00000	-17104
3.00833	-16896
3.01667	-16672
3.02500	-16431
3.03333	-16172
3.04167	-15893
3.05000	-15591
3.05833	-15265
3.06667	-14914
3.07500	-14536
3.08333	-14126
3.09167	-13683
3.10000	-13202
3.10833	-12677
3.11667	-12099
3.12500	-11459
3.13333	-10744
3.14167	-9938
3.15000	-9022
3.15833	-7972
3.16667	-6758
3.17500	-5347
3.18333	-3698
3.19167	-1766
3.20000	496
3.20833	3142
3.21667	6223
3.22500	9788
3.23333	13889
3.24167	18571
3.25000	23877
3.25833	29838
3.26667	36473
3.27500	43783
3.28333	51755
3.29167	60365
3.30000	69578
3.30833	79342
3.31667	89594
3.32500	100254
3.33333	111227
3.34167	122410
3.35000	133699
3.35833	144990
3.36667	156180
3.37500	167164
3.38333	177844
3.39167	188121
3.40000	197913
3.40833	207150
3.41667	215773
3.42500	223745
3.43333	231028
3.44167	237598
3.45000	243448
3.45833	248580
3.46667	253007
3.47500	256748
3.48333	259829
3.49167	262277
3.50000	264127
3.50833	265413
3.51667	266175
3.52500	266452
3.53333	266284
3.54167	265709
3.55000	264765
3.55833	263487
3.56667	261912
3.57500	260073
3.58333	258000
3.59167	255719
3.60000	253253
3.60833	250632
3.61667	247875
3.62500	245001
3.63333	242031
3.64167	238977
3.65000	235857
3.65833	232682
3.66667	229465
3.67500	226221
3.68333	222960
3.69167	219689
3.70000	216417
3.70833	213152
3.71667	209904
3.72500	206684
3.73333	203498
3.74167	200351
3.75000	197250
3.75833	194202
3.76667	191218
3.77500	188303
3.78333	185463
3.79167	182703
3.80000	180029
3.80833	177443
3.81667	174952
3.82500	172556
3.83333	170258
3.84167	168059
3.85000	165959
3.85833	163954
3.86667	162045
3.87500	160228
3.88333	158499
3.89167	156854
3.90000	155288
3.90833	153796
3.91667	152369
3.92500	151002
3.93333	149688
3.94167	148420
3.95000	147195
3.95833	146010
3.96667	144856
3.97500	143730
3.98333	142630
3.99167	141554
4.00000	140498
4.00833	139462
4.01667	138448
4.02500	137455
4.03333	136485
4.04167	135541
4.05000	134625
4.05833	133738
4.06667	132884
4.07500	132068
4.08333	131290
4.09167	130555
4.10000	129867
4.10833	129230
4.11667	128649
4.12500	128124
4.13333	127654
4.14167	127243
4.15000	126894
4.15833	126609
4.16667	126385
4.17500	126226
4.18333	126131
4.19167	126098
4.20000	126128
4.20833	126216
4.21667	126360
4.22500	126555
4.23333	126797
4.24167	127080
4.25000	127401
4.25833	127750
4.26667	128119
4.27500	128501
4.28333	128887
4.29167	129264
4.30000	129623
4.30833	129957
4.31667	130259
4.32500	130521
4.33333	130737
4.34167	130900
4.35000	131007
4.35833	131053
4.36667	131037
4.37500	130957
4.38333	130812
4.39167	130605
4.40000	130336
4.40833	130007
4.41667	129622
4.42500	129179
4.43333	128683
4.44167	128139
4.45000	127548
4.45833	126918
4.46667	126251
4.47500	125549
4.48333	124815
4.49167	124050
4.50000	123259
4.50833	122446
4.51667	121614
4.52500	120764
4.53333	119896
4.54167	119015
4.55000	118123
4.55833	117218
4.56667	116301
4.57500	115375
4.58333	114438
4.59167	113490
4.60000	112534
4.60833	111569
4.61667	110595
4.62500	109609
4.63333	108614
4.64167	107609
4.65000	106593
4.65833	105566
4.66667	104530
4.67500	103483
4.68333	102425
4.69167	101357
4.70000	100279
4.70833	99195
4.71667	98104
4.72500	97003
4.73333	95894
4.74167	94778
4.75000	93658
4.75833	92535
4.76667	91410
4.77500	90282
4.78333	89153
4.79167	88029
4.80000	86909
4.80833	85792
4.81667	84680
4.82500	83575
4.83333	82479
4.84167	81394
4.85000	80322
4.85833	79264
4.86667	78220
4.87500	77193
4.88333	76185
4.89167	75197
4.90000	74231
4.90833	73293
4.91667	72374
4.92500	71479
4.93333	70616
4.94167	69776
4.95000	68961
4.95833	68176
4.96667	67424
4.97500	66707
4.98333	66022
4.99167	65372
5.00000	64757
5.00833	64178
5.01667	63635
5.02500	63130
5.03333	62664
5.04167	62234
5.05000	61844
5.05833	61493
5.06667	61180
5.07500	60907
5.08333	60675
5.09167	60481
5.10000	60329
5.10833	60217
5.11667	60145
5.12500	60116
5.13333	60129
5.14167	60185
5.15000	60283
5.15833	60425
5.16667	60610
5.17500	60837
5.18333	61110
5.19167	61429
5.20000	61792
5.20833	62201
5.21667	62657
5.22500	63163
5.23333	63717
5.24167	64320
5.25000	64969
5.25833	65669
5.26667	66419
5.27500	67223
5.28333	68078
5.29167	68983
5.30000	69941
5.30833	70951
5.31667	72017
5.32500	73138
5.33333	74314
5.34167	75545
5.35000	76832
5.35833	78177
5.36667	79583
5.37500	81049
5.38333	82576
5.39167	84164
5.40000	85811
5.40833	87521
5.41667	89293
5.42500	91130
5.43333	93035
5.44167	95007
5.45000	97048
5.45833	99157
5.46667	101336
5.47500	103586
5.48333	105906
5.49167	108296
5.50000	110753
5.50833	113276
5.51667	115865
5.52500	118519
5.53333	121236
5.54167	124017
5.55000	126856
5.55833	129750
5.56667	132697
5.57500	135695
5.58333	138738
5.59167	141821
5.60000	144939
5.60833	148089
5.61667	151265
5.62500	154461
5.63333	157672
5.64167	160896
5.65000	164124
5.65833	167352
5.66667	170576
5.67500	173792
5.68333	176997
5.69167	180183
5.70000	183346
5.70833	186487
5.71667	189601
5.72500	192682
5.73333	195727
5.74167	198738
5.75000	201712
5.75833	204648
5.76667	207548
5.77500	210410
5.78333	213235
5.79167	216020
5.80000	218767
5.80833	221476
5.81667	224152
5.82500	226796
5.83333	229406
5.84167	231983
5.85000	234531
5.85833	237051
5.86667	239545
5.87500	242019
5.88333	244477
5.89167	246918
5.90000	249345
5.90833	251758
5.91667	254160
5.92500	256555
5.93333	258948
5.94167	261338
5.95000	263728
5.95833	266119
5.96667	268515
5.97500	270922
5.98333	273337
5.99167	275767
6.00000	278213
6.00833	280678
6.01667	283159
6.02500	285662
6.03333	288188
6.04167	290738
6.05000	293314
6.05833	295919
6.06667	298553
6.07500	301219
6.08333	303915
6.09167	306641
6.10000	309397
6.10833	312186
6.11667	315011
6.12500	317870
6.13333	320762
6.14167	323689
6.15000	326646
6.15833	329635
6.16667	332654
6.17500	335702
6.18333	338776
6.19167	341876
6.20000	345001
6.20833	348150
6.21667	351323
6.22500	354515
6.23333	357729
6.24167	360964
6.25000	364215
6.25833	367486
6.26667	370773
6.27500	374077
6.28333	377395
6.29167	380728
6.30000	384075
6.30833	387436
6.31667	390813
6.32500	394202
6.33333	397606
6.34167	401021
6.35000	404446
6.35833	407881
6.36667	411325
6.37500	414776
6.38333	418230
6.39167	421681
6.40000	425126
6.40833	428565
6.41667	431992
6.42500	435402
6.43333	438790
6.44167	442151
6.45000	445472
6.45833	448747
6.46667	451970
6.47500	455131
6.48333	458220
6.49167	461230
6.50000	464149
6.50833	466963
6.51667	469661
6.52500	472231
6.53333	474667
6.54167	476962
6.55000	479101
6.55833	481069
6.56667	482853
6.57500	484448
6.58333	485845
6.59167	487036
6.60000	488013
6.60833	488759
6.61667	489268
6.62500	489535
6.63333	489559
6.64167	489330
6.65000	488843
6.65833	488100
6.66667	487097
6.67500	485830
6.68333	484302
6.69167	482514
6.70000	480465
6.70833	478157
6.71667	475596
6.72500	472784
6.73333	469725
6.74167	466424
6.75000	462891
6.75833	459130
6.76667	455150
6.77500	450961
6.78333	446573
6.79167	441997
6.80000	437241
6.80833	432317
6.81667	427234
6.82500	422004
6.83333	416641
6.84167	411154
6.85000	405556
6.85833	399859
6.86667	394074
6.87500	388212
6.88333	382289
6.89167	376318
6.90000	370310
6.90833	364279
6.91667	358233
6.92500	352183
6.93333	346142
6.94167	340127
6.95000	334147
6.95833	328211
6.96667	322330
6.97500	316515
6.98333	310776
6.99167	305127
7.00000	299575
7.00833	294137
7.01667	288819
7.02500	283632
7.03333	278586
7.04167	273690
7.05000	268959
7.05833	264403
7.06667	260028
7.07500	255843
7.08333	251861
7.09167	248091
7.10000	244546
7.10833	241235
7.11667	238168
7.12500	235356
7.13333	232813
7.14167	230547
7.15000	228569
7.15833	226888
7.16667	225514
7.17500	224456
7.18333	223727
7.19167	223328
7.20000	223271
7.20833	223564
7.21667	224211
7.22500	225218
7.23333	226587
7.24167	228323
7.25000	230426
7.25833	232893
7.26667	235724
7.27500	238914
7.28333	242457
7.29167	246350
7.30000	250584
7.30833	255149
7.31667	260035
7.32500	265229
7.33333	270716
7.34167	276482
7.35000	282515
7.35833	288795
7.36667	295307
7.37500	302028
7.38333	308942
7.39167	316025
7.40000	323258
7.40833	330620
7.41667	338093
7.42500	345660
7.43333	353298
7.44167	360980
7.45000	368688
7.45833	376398
7.46667	384089
7.47500	391740
7.48333	399327
7.49167	406826
7.50000	414205
7.50833	421439
7.51667	428508
7.52500	435385
7.53333	442050
7.54167	448480
7.55000	454651
7.55833	460542
7.56667	466135
7.57500	471415
7.58333	476367
7.59167	480986
7.60000	485268
7.60833	489211
7.61667	492813
7.62500	496083
7.63333	499024
7.64167	501650
7.65000	503975
7.65833	506007
7.66667	507763
7.67500	509259
7.68333	510517
7.69167	511552
7.70000	512385
7.70833	513044
7.71667	513556
7.72500	513947
7.73333	514249
7.74167	514492
7.75000	514714
7.75833	514955
7.76667	515253
7.77500	515640
7.78333	516156
7.79167	516839
7.80000	517724
7.80833	518848
7.81667	520240
7.82500	521922
7.83333	523920
7.84167	526248
7.85000	528916
7.85833	531935
7.86667	535305
7.87500	539030
7.88333	543099
7.89167	547495
7.90000	552206
7.90833	557209
7.91667	562483
7.92500	568003
7.93333	573732
7.94167	579640
7.95000	585687
7.95833	591831
7.96667	598035
7.97500	604263
7.98333	610473
7.99167	616624
8.00000	622678
8.00833	628597
8.01667	634342
8.02500	639879
8.03333	645179
8.04167	650206
8.05000	654930
8.05833	659325
8.06667	663355
8.07500	666997
8.08333	670232
8.09167	673032
8.10000	675383
8.10833	677262
8.11667	678646
8.12500	679526
8.13333	679886
8.14167	679716
8.15000	679003
8.15833	677744
8.16667	675941
8.17500	673583
8.18333	670669
8.19167	667201
8.20000	663184
8.20833	658620
8.21667	653524
8.22500	647906
8.23333	641772
8.24167	635138
8.25000	628015
8.25833	620417
8.26667	612363
8.27500	603868
8.28333	594948
8.29167	585613
8.30000	575877
8.30833	565754
8.31667	555269
8.32500	544446
8.33333	533301
8.34167	521850
8.35000	510113
8.35833	498112
8.36667	485867
8.37500	473404
8.38333	460755
8.39167	447950
8.40000	435007
8.40833	421956
8.41667	408825
8.42500	395642
8.43333	382444
8.44167	369266
8.45000	356143
8.45833	343102
8.46667	330169
8.47500	317375
8.48333	304746
8.49167	292316
8.50000	280113
8.50833	268155
8.51667	256460
8.52500	245043
8.53333	233924
8.54167	223120
8.55000	212646
8.55833	202510
8.56667	192719
8.57500	183278
8.58333	174193
8.59167	165467
8.60000	157104
8.60833	149107
8.61667	141469
8.62500	134186
8.63333	127255
8.64167	120673
8.65000	114432
8.65833	108530
8.66667	102959
8.67500	97707
8.68333	92770
8.69167	88141
8.70000	83812
8.70833	79773
8.71667	76019
8.72500	72539
8.73333	69324
8.74167	66365
8.75000	63654
8.75833	61179
8.76667	58932
8.77500	56904
8.78333	55087
8.79167	53472
8.80000	52049
8.80833	50808
8.81667	49742
8.82500	48844
8.83333	48103
8.84167	47514
8.85000	47068
8.85833	46761
8.86667	46586
8.87500	46538
8.88333	46610
8.89167	46801
8.90000	47107
8.90833	47525
8.91667	48054
8.92500	48692
8.93333	49438
8.94167	50296
8.95000	51267
8.95833	52352
8.96667	53553
8.97500	54874
8.98333	56320
8.99167	57896
9.00000	59606
9.00833	61451
9.01667	63439
9.02500	65579
9.03333	67871
9.04167	70320
9.05000	72931
9.05833	75707
9.06667	78654
9.07500	81774
9.08333	85068
9.09167	88540
9.10000	92186
9.10833	96009
9.11667	100005
9.12500	104170
9.13333	108502
9.14167	112995
9.15000	117643
9.15833	122440
9.16667	127375
9.17500	132441
9.18333	137628
9.19167	142922
9.20000	148311
9.20833	153784
9.21667	159328
9.22500	164926
9.23333	170563
9.24167	176225
9.25000	181898
9.25833	187566
9.26667	193210
9.27500	198813
9.28333	204358
9.29167	209831
9.30000	215220
9.30833	220509
9.31667	225683
9.32500	230725
9.33333	235623
9.34167	240365
9.35000	244939
9.35833	249334
9.36667	253542
9.37500	257554
9.38333	261360
9.39167	264953
9.40000	268331
9.40833	271488
9.41667	274422
9.42500	277130
9.43333	279611
9.44167	281867
9.45000	283899
9.45833	285709
9.46667	287299
9.47500	288674
9.48333	289835
9.49167	290792
9.50000	291552
9.50833	292121
9.51667	292507
9.52500	292717
9.53333	292761
9.54167	292650
9.55000	292395
9.55833	292003
9.56667	291486
9.57500	290851
9.58333	290106
9.59167	289264
9.60000	288333
9.60833	287327
9.61667	286253
9.62500	285116
9.63333	283927
9.64167	282690
9.65000	281415
9.65833	280110
9.66667	278785
9.67500	277440
9.68333	276078
9.69167	274705
9.70000	273321
9.70833	271930
9.71667	270538
9.72500	269143
9.73333	267743
9.74167	266343
9.75000	264942
9.75833	263539
9.76667	262133
9.77500	260720
9.78333	259302
9.79167	257878
9.80000	256442
9.80833	254990
9.81667	253521
9.82500	252035
9.83333	250525
9.84167	248991
9.85000	247428
9.85833	245831
9.86667	244202
9.87500	242536
9.88333	240831
9.89167	239086
9.90000	237298
9.90833	235463
9.91667	233579
9.92500	231647
9.93333	229664
9.94167	227630
9.95000	225541
9.95833	223399
9.96667	221202
9.97500	218949
9.98333	216641
9.99167	214279
10.00000	211865
10.00833	209398
10.01667	206879
10.02500	204309
10.03333	201691
10.04167	199026
10.05000	196315
10.05833	193561
10.06667	190767
10.07500	187935
10.08333	185066
10.09167	182163
10.10000	179228
10.10833	176266
10.11667	173279
10.12500	170269
10.13333	167239
10.14167	164193
10.15000	161132
10.15833	158061
10.16667	154983
10.17500	151902
10.18333	148819
10.19167	145737
10.20000	142657
10.20833	139584
10.21667	136521
10.22500	133473
10.23333	130441
10.24167	127425
10.25000	124429
10.25833	121454
10.26667	118504
10.27500	115583
10.28333	112692
10.29167	109830
10.30000	107001
10.30833	104205
10.31667	101444
10.32500	98720
10.33333	96034
10.34167	93387
10.35000	90780
10.35833	88216
10.36667	85695
10.37500	83219
10.38333	80788
10.39167	78403
10.40000	76062
10.40833	73765
10.41667	71513
10.42500	69310
10.43333	67154
10.44167	65045
10.45000	62981
10.45833	60965
10.46667	58995
10.47500	57071
10.48333	55194
10.49167	53361
10.50000	51574
10.50833	49831
10.51667	48132
10.52500	46477
10.53333	44865
10.54167	43294
10.55000	41767
10.55833	40282
10.56667	38836
10.57500	37430
10.58333	36061
10.59167	34730
10.60000	33436
10.60833	32182
10.61667	30962
10.62500	29776
10.63333	28626
10.64167	27508
10.65000	26423
10.65833	25369
10.66667	24346
10.67500	23354
10.68333	22391
10.69167	21457
10.70000	20551
10.70833	19671
10.71667	18819
10.72500	17993
10.73333	17192
10.74167	16414
10.75000	15660
10.75833	14929
10.76667	14220
10.77500	13533
10.78333	12867
10.79167	12222
10.80000	11599
10.80833	10995
10.81667	10408
10.82500	9839
10.83333	9288
10.84167	8757
10.85000	8242
10.85833	7740
10.86667	7254
10.87500	6783
10.88333	6327
10.89167	5885
10.90000	5458
10.90833	5043
10.91667	4643
10.92500	4258
10.93333	3885
10.94167	3523
10.95000	3171
10.95833	2831
10.96667	2503
10.97500	2185
10.98333	1879
10.99167	1581
11.00000	1294

[LC Chromatogram(Detector B-Ch1)]
Interval(msec)	500
# of Points	1321
Start Time(min)	0.000
End Time(min)	11.000
Intensity Units	mV
Intensity Multiplier	0.001
Ex. Wavelength(nm)	482
Em. Wavelength(nm)	520
R.Time (min)	Intensity
0.00000	-3563
0.00833	-3563
0.01667	-1313
0.02500	-73
0.03333	-91
0.04167	-52
0.05000	-117
0.05833	-180
0.06667	-240
0.07500	-290
0.08333	-333
0.09167	-374
0.10000	-419
0.10833	-467
0.11667	-521
0.12500	-571
0.13333	-621
0.14167	-672
0.15000	-724
0.15833	-780
0.16667	-837
0.17500	-894
0.18333	-954
0.19167	-1019
0.20000	-1085
0.20833	-1155
0.21667	-1225
0.22500	-1289
0.23333	-1349
0.24167	-1405
0.25000	-1457
0.25833	-1506
0.26667	-1551
0.27500	-1592
0.28333	-1631
0.29167	-1673
0.30000	-1717
0.30833	-1761
0.31667	-1807
0.32500	-1852
0.33333	-1897
0.34167	-1942
0.35000	-1989
0.35833	-2039
0.36667	-2087
0.37500	-2139
0.38333	-2192
0.39167	-2245
0.40000	-2296
0.40833	-2344
0.41667	-2392
0.42500	-2443
0.43333	-2495
0.44167	-2544
0.45000	-2592
0.45833	-2640
0.46667	-2686
0.47500	-2735
0.48333	-2784
0.49167	-2834
0.50000	-2887
0.50833	-2939
0.51667	-2990
0.52500	-3041
0.53333	-3094
0.54167	-3145
0.55000	-3194
0.55833	-3242
0.56667	-3287
0.57500	-3336
0.58333	-3384
0.59167	-3434
0.60000	-3479
0.60833	-3524
0.61667	-3571
0.62500	-3619
0.63333	-3665
0.64167	-3710
0.65000	-3757
0.65833	-3803
0.66667	-3849
0.67500	-3896
0.68333	-3940
0.69167	-3983
0.70000	-4026
0.70833	-4064
0.71667	-4104
0.72500	-4147
0.73333	-4188
0.74167	-4230
0.75000	-4273
0.75833	-4316
0.76667	-4358
0.77500	-4397
0.78333	-4438
0.79167	-4477
0.80000	-4518
0.80833	-4560
0.81667	-4602
0.82500	-4644
0.83333	-4687
0.84167	-4730
0.85000	-4768
0.85833	-4807
0.86667	-4850
0.87500	-4890
0.88333	-4928
0.89167	-4964
0.90000	-5003
0.90833	-5041
0.91667	-5081
0.92500	-5118
0.93333	-5156
0.94167	-5192
0.95000	-5226
0.95833	-5261
0.96667	-5296
0.97500	-5332
0.98333	-5367
0.99167	-5403
1.00000	-5440
1.00833	-5473
1.01667	-5505
1.02500	-5540
1.03333	-5572
1.04167	-5605
1.05000	-5636
1.05833	-5667
1.06667	-5699
1.07500	-5728
1.08333	-5762
1.09167	-5794
1.10000	-5821
1.10833	-5848
1.11667	-5877
1.12500	-5905
1.13333	-5933
1.14167	-5965
1.15000	-5996
1.15833	-6027
1.16667	-6056
1.17500	-6087
1.18333	-6117
1.19167	-6146
1.20000	-6177
1.20833	-6205
1.21667	-6235
1.22500	-6266
1.23333	-6298
1.24167	-6326
1.25000	-6353
1.25833	-6381
1.26667	-6409
1.27500	-6442
1.28333	-6472
1.29167	-6502
1.30000	-6532
1.30833	-6563
1.31667	-6592
1.32500	-6619
1.33333	-6644
1.34167	-6672
1.35000	-6700
1.35833	-6726
1.36667	-6754
1.37500	-6777
1.38333	-6798
1.39167	-6824
1.40000	-6849
1.40833	-6874
1.41667	-6901
1.42500	-6927
1.43333	-6952
1.44167	-6975
1.45000	-6999
1.45833	-7022
1.46667	-7047
1.47500	-7073
1.48333	-7099
1.49167	-7125
1.50000	-7151
1.50833	-7176
1.51667	-7201
1.52500	-7225
1.53333	-7250
1.54167	-7274
1.55000	-7297
1.55833	-7318
1.56667	-7341
1.57500	-7364
1.58333	-7387
1.59167	-7410
1.60000	-7432
1.60833	-7456
1.61667	-7479
1.62500	-7501
1.63333	-7523
1.64167	-7546
1.65000	-7569
1.65833	-7596
1.66667	-7619
1.67500	-7641
1.68333	-7663
1.69167	-7685
1.70000	-7708
1.70833	-7727
1.71667	-7749
1.72500	-7775
1.73333	-7797
1.74167	-7817
1.75000	-7834
1.75833	-7852
1.76667	-7870
1.77500	-7888
1.78333	-7907
1.79167	-7925
1.80000	-7943
1.80833	-7964
1.81667	-7987
1.82500	-8010
1.83333	-8031
1.84167	-8050
1.85000	-8071
1.85833	-8090
1.86667	-8107
1.87500	-8126
1.88333	-8145
1.89167	-8162
1.90000	-8177
1.90833	-8193
1.91667	-8213
1.92500	-8234
1.93333	-8253
1.94167	-8274
1.95000	-8294
1.95833	-8313
1.96667	-8332
1.97500	-8349
1.98333	-8367
1.99167	-8384
2.00000	-8402
2.00833	-8420
2.01667	-8437
2.02500	-8454
2.03333	-8474
2.04167	-8494
2.05000	-8513
2.05833	-8530
2.06667	-8545
2.07500	-8563
2.08333	-8583
2.09167	-8601
2.10000	-8618
2.10833	-8636
2.11667	-8653
2.12500	-8670
2.13333	-8684
2.14167	-8698
2.15000	-8711
2.15833	-8726
2.16667	-8741
2.17500	-8756
2.18333	-8774
2.19167	-8791
2.20000	-8806
2.20833	-8819
2.21667	-8836
2.22500	-8853
2.23333	-8870
2.24167	-8886
2.25000	-8899
2.25833	-8913
2.26667	-8930
2.27500	-8947
2.28333	-8962
2.29167	-8978
2.30000	-8994
2.30833	-9010
2.31667	-9026
2.32500	-9044
2.33333	-9062
2.34167	-9081
2.35000	-9097
2.35833	-9111
2.36667	-9128
2.37500	-9144
2.38333	-9162
2.39167	-9179
2.40000	-9195
2.40833	-9209
2.41667	-9225
2.42500	-9243
2.43333	-9262
2.44167	-9279
2.45000	-9295
2.45833	-9311
2.46667	-9330
2.47500	-9345
2.48333	-9359
2.49167	-9378
2.50000	-9396
2.50833	-9413
2.51667	-9432
2.52500	-9449
2.53333	-9466
2.54167	-9483
2.55000	-9501
2.55833	-9517
2.56667	-9533
2.57500	-9547
2.58333	-9560
2.59167	-9572
2.60000	-9586
2.60833	-9601
2.61667	-9615
2.62500	-9633
2.63333	-9649
2.64167	-9663
2.65000	-9675
2.65833	-9688
2.66667	-9703
2.67500	-9719
2.68333	-9736
2.69167	-9749
2.70000	-9761
2.70833	-9775
2.71667	-9789
2.72500	-9804
2.73333	-9819
2.74167	-9834
2.75000	-9849
2.75833	-9865
2.76667	-9883
2.77500	-9900
2.78333	-9916
2.79167	-9930
2.80000	-9945
2.80833	-9959
2.81667	-9973
2.82500	-9986
2.83333	-10002
2.84167	-10016
2.85000	-10033
2.85833	-10048
2.86667	-10060
2.87500	-10073
2.88333	-10087
2.89167	-10103
2.90000	-10116
2.90833	-10130
2.91667	-10143
2.92500	-10154
2.93333	-10165
2.94167	-10179
2.95000	-10192
2.95833	-10205
2.96667	-10218
2.97500	-10231
2.98333	-10243
2.99167	-10255
3.00000	-10266
3.00833	-10275
3.01667	-10287
3.02500	-10300
3.03333	-10310
3.04167	-10319
3.05000	-10331
3.05833	-10343
3.06667	-10357
3.07500	-10370
3.08333	-10380
3.09167	-10390
3.10000	-10400
3.10833	-10410
3.11667	-10423
3.12500	-10435
3.13333	-10444
3.14167	-10452
3.15000	-10462
3.15833	-10473
3.16667	-10483
3.17500	-10493
3.18333	-10504
3.19167	-10514
3.20000	-10523
3.20833	-10533
3.21667	-10544
3.22500	-10556
3.23333	-10566
3.24167	-10577
3.25000	-10586
3.25833	-10597
3.26667	-10611
3.27500	-10624
3.28333	-10637
3.29167	-10647
3.30000	-10656
3.30833	-10666
3.31667	-10676
3.32500	-10687
3.33333	-10696
3.34167	-10706
3.35000	-10715
3.35833	-10725
3.36667	-10735
3.37500	-10745
3.38333	-10756
3.39167	-10764
3.40000	-10768
3.40833	-10772
3.41667	-10778
3.42500	-10782
3.43333	-10780
3.44167	-10772
3.45000	-10762
3.45833	-10747
3.46667	-10723
3.47500	-10688
3.48333	-10642
3.49167	-10584
3.50000	-10508
3.50833	-10413
3.51667	-10297
3.52500	-10160
3.53333	-9994
3.54167	-9793
3.55000	-9556
3.55833	-9280
3.56667	-8963
3.57500	-8599
3.58333	-8186
3.59167	-7718
3.60000	-7197
3.60833	-6623
3.61667	-5995
3.62500	-5312
3.63333	-4577
3.64167	-3791
3.65000	-2956
3.65833	-2075
3.66667	-1156
3.67500	-200
3.68333	786
3.69167	1796
3.70000	2831
3.70833	3882
3.71667	4943
3.72500	6007
3.73333	7072
3.74167	8132
3.75000	9182
3.75833	10219
3.76667	11242
3.77500	12240
3.78333	13212
3.79167	14152
3.80000	15062
3.80833	15946
3.81667	16802
3.82500	17634
3.83333	18438
3.84167	19212
3.85000	19962
3.85833	20684
3.86667	21382
3.87500	22054
3.88333	22705
3.89167	23332
3.90000	23935
3.90833	24514
3.91667	25077
3.92500	25627
3.93333	26163
3.94167	26686
3.95000	27195
3.95833	27689
3.96667	28170
3.97500	28640
3.98333	29104
3.99167	29564
4.00000	30017
4.00833	30460
4.01667	30897
4.02500	31329
4.03333	31758
4.04167	32181
4.05000	32608
4.05833	33037
4.06667	33462
4.07500	33888
4.08333	34318
4.09167	34743
4.10000	35167
4.10833	35597
4.11667	36031
4.12500	36465
4.13333	36899
4.14167	37329
4.15000	37762
4.15833	38198
4.16667	38643
4.17500	39095
4.18333	39550
4.19167	40016
4.20000	40491
4.20833	40975
4.21667	41462
4.22500	41963
4.23333	42478
4.24167	43016
4.25000	43564
4.25833	44125
4.26667	44709
4.27500	45322
4.28333	45967
4.29167	46644
4.30000	47357
4.30833	48115
4.31667	48924
4.32500	49789
4.33333	50707
4.34167	51689
4.35000	52746
4.35833	53888
4.36667	55110
4.37500	56424
4.38333	57841
4.39167	59365
4.40000	60999
4.40833	62755
4.41667	64648
4.42500	66676
4.43333	68849
4.44167	71171
4.45000	73652
4.45833	76289
4.46667	79087
4.47500	82062
4.48333	85203
4.49167	88516
4.50000	92000
4.50833	95657
4.51667	99486
4.52500	103497
4.53333	107681
4.54167	112018
4.55000	116515
4.55833	121144
4.56667	125895
4.57500	130753
4.58333	135687
4.59167	140665
4.60000	145668
4.60833	150671
4.61667	155634
4.62500	160525
4.63333	165315
4.64167	169972
4.65000	174480
4.65833	178830
4.66667	182992
4.67500	186925
4.68333	190621
4.69167	194050
4.70000	197198
4.70833	200080
4.71667	202695
4.72500	205024
4.73333	207068
4.74167	208821
4.75000	210284
4.75833	211458
4.76667	212358
4.77500	212982
4.78333	213343
4.79167	213454
4.80000	213318
4.80833	212957
4.81667	212376
4.82500	211572
4.83333	210574
4.84167	209381
4.85000	208017
4.85833	206503
4.86667	204850
4.87500	203065
4.88333	201151
4.89167	199115
4.90000	196972
4.90833	194740
4.91667	192415
4.92500	190012
4.93333	187550
4.94167	185039
4.95000	182476
4.95833	179871
4.96667	177229
4.97500	174547
4.98333	171832
4.99167	169096
5.00000	166354
5.00833	163619
5.01667	160872
5.02500	158127
5.03333	155394
5.04167	152659
5.05000	149931
5.05833	147219
5.06667	144523
5.07500	141846
5.08333	139193
5.09167	136558
5.10000	133948
5.10833	131365
5.11667	128812
5.12500	126293
5.13333	123807
5.14167	121354
5.15000	118936
5.15833	116554
5.16667	114207
5.17500	111896
5.18333	109623
5.19167	107384
5.20000	105181
5.20833	103008
5.21667	100877
5.22500	98783
5.23333	96729
5.24167	94707
5.25000	92714
5.25833	90751
5.26667	88821
5.27500	86923
5.28333	85058
5.29167	83217
5.30000	81411
5.30833	79650
5.31667	77919
5.32500	76219
5.33333	74550
5.34167	72908
5.35000	71296
5.35833	69730
5.36667	68199
5.37500	66697
5.38333	65216
5.39167	63766
5.40000	62353
5.40833	60972
5.41667	59626
5.42500	58307
5.43333	57012
5.44167	55748
5.45000	54515
5.45833	53314
5.46667	52144
5.47500	50999
5.48333	49878
5.49167	48791
5.50000	47734
5.50833	46702
5.51667	45694
5.52500	44705
5.53333	43742
5.54167	42802
5.55000	41879
5.55833	40972
5.56667	40079
5.57500	39211
5.58333	38364
5.59167	37540
5.60000	36732
5.60833	35944
5.61667	35179
5.62500	34434
5.63333	33706
5.64167	32994
5.65000	32297
5.65833	31617
5.66667	30957
5.67500	30316
5.68333	29688
5.69167	29077
5.70000	28487
5.70833	27910
5.71667	27346
5.72500	26794
5.73333	26263
5.74167	25752
5.75000	25253
5.75833	24762
5.76667	24281
5.77500	23815
5.78333	23364
5.79167	22925
5.80000	22496
5.80833	22080
5.81667	21677
5.82500	21291
5.83333	20921
5.84167	20562
5.85000	20210
5.85833	19864
5.86667	19528
5.87500	19208
5.88333	18898
5.89167	18597
5.90000	18304
5.90833	18020
5.91667	17742
5.92500	17473
5.93333	17216
5.94167	16966
5.95000	16720
5.95833	16480
5.96667	16244
5.97500	16017
5.98333	15801
5.99167	15588
6.00000	15377
6.00833	15174
6.01667	14971
6.02500	14772
6.03333	14578
6.04167	14390
6.05000	14207
6.05833	14025
6.06667	13845
6.07500	13666
6.08333	13489
6.09167	13313
6.10000	13137
6.10833	12964
6.11667	12794
6.12500	12625
6.13333	12455
6.14167	12285
6.15000	12113
6.15833	11942
6.16667	11774
6.17500	11604
6.18333	11438
6.19167	11273
6.20000	11111
6.20833	10943
6.21667	10771
6.22500	10603
6.23333	10437
6.24167	10272
6.25000	10108
6.25833	9945
6.26667	9778
6.27500	9617
6.28333	9458
6.29167	9298
6.30000	9140
6.30833	8982
6.31667	8822
6.32500	8662
6.33333	8502
6.34167	8345
6.35000	8188
6.35833	8029
6.36667	7872
6.37500	7719
6.38333	7568
6.39167	7418
6.40000	7270
6.40833	7126
6.41667	6977
6.42500	6826
6.43333	6679
6.44167	6533
6.45000	6388
6.45833	6247
6.46667	6110
6.47500	5973
6.48333	5839
6.49167	5704
6.50000	5572
6.50833	5443
6.51667	5318
6.52500	5195
6.53333	5072
6.54167	4952
6.55000	4838
6.55833	4725
6.56667	4615
6.57500	4505
6.58333	4401
6.59167	4298
6.60000	4200
6.60833	4104
6.61667	4017
6.62500	3937
6.63333	3857
6.64167	3780
6.65000	3707
6.65833	3638
6.66667	3577
6.67500	3517
6.68333	3463
6.69167	3413
6.70000	3368
6.70833	3329
6.71667	3291
6.72500	3260
6.73333	3238
6.74167	3225
6.75000	3214
6.75833	3207
6.76667	3211
6.77500	3225
6.78333	3249
6.79167	3279
6.80000	3317
6.80833	3368
6.81667	3425
6.82500	3491
6.83333	3569
6.84167	3661
6.85000	3761
6.85833	3875
6.86667	4001
6.87500	4142
6.88333	4298
6.89167	4467
6.90000	4658
6.90833	4871
6.91667	5103
6.92500	5353
6.93333	5621
6.94167	5911
6.95000	6226
6.95833	6567
6.96667	6934
6.97500	7330
6.98333	7758
6.99167	8218
7.00000	8714
7.00833	9248
7.01667	9825
7.02500	10446
7.03333	11116
7.04167	11837
7.05000	12610
7.05833	13443
7.06667	14341
7.07500	15308
7.08333	16347
7.09167	17460
7.10000	18663
7.10833	19959
7.11667	21357
7.12500	22865
7.13333	24492
7.14167	26249
7.15000	28145
7.15833	30189
7.16667	32401
7.17500	34793
7.18333	37382
7.19167	40190
7.20000	43230
7.20833	46511
7.21667	50059
7.22500	53903
7.23333	58056
7.24167	62545
7.25000	67401
7.25833	72663
7.26667	78346
7.27500	84479
7.28333	91096
7.29167	98237
7.30000	105938
7.30833	114253
7.31667	123200
7.32500	132808
7.33333	143116
7.34167	154167
7.35000	165985
7.35833	178602
7.36667	192058
7.37500	206395
7.38333	221629
7.39167	237788
7.40000	254893
7.40833	272958
7.41667	292015
7.42500	312075
7.43333	333127
7.44167	355196
7.45000	378278
7.45833	402310
7.46667	427276
7.47500	453166
7.48333	479938
7.49167	507564
7.50000	536003
7.50833	565186
7.51667	595067
7.52500	625602
7.53333	656701
7.54167	688318
7.55000	720389
7.55833	752831
7.56667	785574
7.57500	818537
7.58333	851630
7.59167	884812
7.60000	917992
7.60833	951065
7.61667	983940
7.62500	1016531
7.63333	1048735
7.64167	1080463
7.65000	1111658
7.65833	1142272
7.66667	1172220
7.67500	1201378
7.68333	1229687
7.69167	1257104
7.70000	1283558
7.70833	1309026
7.71667	1333451
7.72500	1356766
7.73333	1378842
7.74167	1399749
7.75000	1419498
7.75833	1438019
7.76667	1455263
7.77500	1471226
7.78333	1485901
7.79167	1499324
7.80000	1511451
7.80833	1522350
7.81667	1531972
7.82500	1540328
7.83333	1547392
7.84167	1553240
7.85000	1557912
7.85833	1561394
7.86667	1563739
7.87500	1564956
7.88333	1565103
7.89167	1564209
7.90000	1562302
7.90833	1559396
7.91667	1555509
7.92500	1550670
7.93333	1544931
7.94167	1538339
7.95000	1530938
7.95833	1522716
7.96667	1513705
7.97500	1503935
7.98333	1493449
7.99167	1482301
8.00000	1470497
8.00833	1458029
8.01667	1444937
8.02500	1431308
8.03333	1417169
8.04167	1402503
8.05000	1387363
8.05833	1371779
8.06667	1355765
8.07500	1339398
8.08333	1322662
8.09167	1305619
8.10000	1288340
8.10833	1270843
8.11667	1253123
8.12500	1235244
8.13333	1217302
8.14167	1199254
8.15000	1181132
8.15833	1163030
8.16667	1144932
8.17500	1126895
8.18333	1108970
8.19167	1091206
8.20000	1073619
8.20833	1056244
8.21667	1039048
8.22500	1022068
8.23333	1005390
8.24167	989000
8.25000	972866
8.25833	957028
8.26667	941490
8.27500	926177
8.28333	911045
8.29167	896376
8.30000	882353
8.30833	868737
8.31667	855386
8.32500	842210
8.33333	829227
8.34167	816457
8.35000	803910
8.35833	791570
8.36667	779446
8.37500	767538
8.38333	755828
8.39167	744324
8.40000	733033
8.40833	721935
8.41667	711021
8.42500	700282
8.43333	689705
8.44167	679251
8.45000	668940
8.45833	658784
8.46667	648767
8.47500	638895
8.48333	629133
8.49167	619490
8.50000	609953
8.50833	600503
8.51667	591142
8.52500	581879
8.53333	572695
8.54167	563597
8.55000	554584
8.55833	545655
8.56667	536800
8.57500	528016
8.58333	519332
8.59167	510723
8.60000	502204
8.60833	493756
8.61667	485397
8.62500	477130
8.63333	468958
8.64167	460860
8.65000	452829
8.65833	444880
8.66667	437021
8.67500	429249
8.68333	421554
8.69167	413951
8.70000	406447
8.70833	399040
8.71667	391737
8.72500	384546
8.73333	377462
8.74167	370496
8.75000	363655
8.75833	356914
8.76667	350292
8.77500	343793
8.78333	337425
8.79167	331176
8.80000	325044
8.80833	319048
8.81667	313199
8.82500	307492
8.83333	301918
8.84167	296474
8.85000	291167
8.85833	286005
8.86667	280974
8.87500	276084
8.88333	271343
8.89167	266745
8.90000	262296
8.90833	257979
8.91667	253803
8.92500	249764
8.93333	245864
8.94167	242087
8.95000	238438
8.95833	234912
8.96667	231511
8.97500	228230
8.98333	225073
8.99167	222032
9.00000	219089
9.00833	216247
9.01667	213496
9.02500	210838
9.03333	208273
9.04167	205796
9.05000	203419
9.05833	201120
9.06667	198895
9.07500	196745
9.08333	194656
9.09167	192633
9.10000	190675
9.10833	188766
9.11667	186901
9.12500	185076
9.13333	183287
9.14167	181532
9.15000	179815
9.15833	178130
9.16667	176457
9.17500	174807
9.18333	173178
9.19167	171566
9.20000	169964
9.20833	168373
9.21667	166792
9.22500	165214
9.23333	163622
9.24167	162025
9.25000	160419
9.25833	158810
9.26667	157193
9.27500	155569
9.28333	153933
9.29167	152275
9.30000	150606
9.30833	148929
9.31667	147243
9.32500	145544
9.33333	143835
9.34167	142114
9.35000	140383
9.35833	138635
9.36667	136881
9.37500	135110
9.38333	133333
9.39167	131548
9.40000	129758
9.40833	127962
9.41667	126151
9.42500	124330
9.43333	122518
9.44167	120706
9.45000	118877
9.45833	117045
9.46667	115215
9.47500	113382
9.48333	111552
9.49167	109731
9.50000	107919
9.50833	106112
9.51667	104317
9.52500	102523
9.53333	100732
9.54167	98950
9.55000	97192
9.55833	95443
9.56667	93707
9.57500	91989
9.58333	90291
9.59167	88615
9.60000	86965
9.60833	85325
9.61667	83700
9.62500	82096
9.63333	80512
9.64167	78957
9.65000	77431
9.65833	75929
9.66667	74449
9.67500	72990
9.68333	71555
9.69167	70149
9.70000	68770
9.70833	67424
9.71667	66104
9.72500	64811
9.73333	63548
9.74167	62305
9.75000	61085
9.75833	59896
9.76667	58739
9.77500	57609
9.78333	56508
9.79167	55430
9.80000	54366
9.80833	53327
9.81667	52311
9.82500	51319
9.83333	50351
9.84167	49406
9.85000	48480
9.85833	47574
9.86667	46695
9.87500	45839
9.88333	44999
9.89167	44177
9.90000	43373
9.90833	42576
9.91667	41791
9.92500	41032
9.93333	40292
9.94167	39564
9.95000	38856
9.95833	38160
9.96667	37480
9.97500	36817
9.98333	36171
9.99167	35535
10.00000	34909
10.00833	34292
10.01667	33691
10.02500	33107
10.03333	32529
10.04167	31960
10.05000	31406
10.05833	30859
10.06667	30319
10.07500	29791
10.08333	29274
10.09167	28762
10.10000	28253
10.10833	27751
10.11667	27258
10.12500	26775
10.13333	26299
10.14167	25834
10.15000	25377
10.15833	24928
10.16667	24492
10.17500	24060
10.18333	23629
10.19167	23210
10.20000	22800
10.20833	22396
10.21667	21996
10.22500	21600
10.23333	21207
10.24167	20820
10.25000	20442
10.25833	20078
10.26667	19717
10.27500	19355
10.28333	18999
10.29167	18653
10.30000	18312
10.30833	17973
10.31667	17638
10.32500	17308
10.33333	16987
10.34167	16670
10.35000	16354
10.35833	16043
10.36667	15741
10.37500	15446
10.38333	15151
10.39167	14857
10.40000	14568
10.40833	14289
10.41667	14018
10.42500	13749
10.43333	13483
10.44167	13224
10.45000	12966
10.45833	12712
10.46667	12464
10.47500	12218
10.48333	11976
10.49167	11740
10.50000	11507
10.50833	11275
10.51667	11048
10.52500	10826
10.53333	10607
10.54167	10391
10.55000	10176
10.55833	9964
10.56667	9760
10.57500	9559
10.58333	9356
10.59167	9156
10.60000	8961
10.60833	8772
10.61667	8582
10.62500	8395
10.63333	8213
10.64167	8032
10.65000	7854
10.65833	7677
10.66667	7503
10.67500	7331
10.68333	7166
10.69167	6996
10.70000	6824
10.70833	6658
10.71667	6496
10.72500	6334
10.73333	6171
10.74167	6013
10.75000	5858
10.75833	5709
10.76667	5561
10.77500	5414
10.78333	5271
10.79167	5128
10.80000	4988
10.80833	4850
10.81667	4715
10.82500	4577
10.83333	4438
10.84167	4302
10.85000	4167
10.85833	4039
10.86667	3917
10.87500	3792
10.88333	3668
10.89167	3542
10.90000	3417
10.90833	3292
10.91667	3171
10.92500	3052
10.93333	2937
10.94167	2824
10.95000	2710
10.95833	2601
10.96667	2492
10.97500	2384
10.98333	2276
10.99167	2169
11.00000	2064

[LC Status Trace(Pump A Pressure)]
Interval(msec)	1000
# of Points	661
Start Time(min)	0.000
End Time(min)	11.000
Intensity Units	kgf/cm2
Intensity Multiplier	1
R.Time (min)	Intensity
0.00000	44.3
0.01667	44.3
0.03333	44.1
0.05000	34.3
0.06667	36.9
0.08333	37.8
0.10000	39.6
0.11667	40.9
0.13333	41.3
0.15000	41.8
0.16667	42.6
0.18333	42.9
0.20000	43.4
0.21667	43.6
0.23333	43.6
0.25000	43.9
0.26667	43.9
0.28333	44.1
0.30000	44.0
0.31667	44.4
0.33333	44.4
0.35000	44.4
0.36667	44.5
0.38333	44.5
0.40000	44.8
0.41667	44.7
0.43333	44.7
0.45000	44.8
0.46667	44.8
0.48333	44.7
0.50000	44.9
0.51667	44.9
0.53333	44.9
0.55000	44.7
0.56667	44.9
0.58333	44.7
0.60000	44.8
0.61667	44.8
0.63333	44.8
0.65000	44.8
0.66667	44.8
0.68333	44.7
0.70000	44.7
0.71667	44.8
0.73333	44.8
0.75000	44.7
0.76667	44.7
0.78333	44.8
0.80000	44.5
0.81667	44.7
0.83333	44.7
0.85000	44.5
0.86667	44.5
0.88333	44.7
0.90000	44.7
0.91667	44.4
0.93333	44.5
0.95000	44.5
0.96667	44.4
0.98333	44.4
1.00000	44.4
1.01667	44.4
1.03333	44.4
1.05000	44.5
1.06667	44.5
1.08333	44.5
1.10000	44.5
1.11667	44.5
1.13333	44.3
1.15000	44.4
1.16667	44.4
1.18333	44.4
1.20000	44.4
1.21667	44.5
1.23333	44.5
1.25000	44.3
1.26667	44.4
1.28333	44.4
1.30000	44.4
1.31667	44.5
1.33333	44.3
1.35000	44.4
1.36667	44.4
1.38333	44.5
1.40000	44.4
1.41667	44.3
1.43333	44.4
1.45000	44.5
1.46667	44.4
1.48333	44.4
1.50000	44.4
1.51667	44.5
1.53333	44.4
1.55000	44.5
1.56667	44.4
1.58333	44.5
1.60000	44.4
1.61667	44.4
1.63333	44.3
1.65000	44.5
1.66667	44.4
1.68333	44.3
1.70000	44.5
1.71667	44.4
1.73333	44.5
1.75000	44.3
1.76667	44.5
1.78333	44.4
1.80000	44.3
1.81667	44.3
1.83333	44.5
1.85000	44.3
1.86667	44.4
1.88333	44.4
1.90000	44.5
1.91667	44.4
1.93333	44.4
1.95000	44.4
1.96667	44.1
1.98333	44.3
2.00000	44.4
2.01667	44.4
2.03333	44.3
2.05000	44.3
2.06667	44.3
2.08333	44.3
2.10000	44.3
2.11667	44.4
2.13333	44.4
2.15000	44.4
2.16667	44.3
2.18333	44.3
2.20000	44.4
2.21667	44.4
2.23333	44.3
2.25000	44.3
2.26667	44.3
2.28333	44.3
2.30000	44.3
2.31667	44.3
2.33333	44.4
2.35000	44.3
2.36667	44.3
2.38333	44.4
2.40000	44.4
2.41667	44.3
2.43333	44.4
2.45000	44.4
2.46667	44.3
2.48333	44.3
2.50000	44.3
2.51667	44.3
2.53333	44.3
2.55000	44.1
2.56667	44.1
2.58333	44.3
2.60000	44.3
2.61667	44.4
2.63333	44.5
2.65000	44.5
2.66667	44.4
2.68333	44.4
2.70000	44.3
2.71667	44.4
2.73333	44.5
2.75000	44.3
2.76667	44.4
2.78333	44.4
2.80000	44.4
2.81667	44.4
2.83333	44.5
2.85000	44.4
2.86667	44.4
2.88333	44.4
2.90000	44.4
2.91667	44.4
2.93333	44.4
2.95000	44.4
2.96667	44.4
2.98333	44.4
3.00000	44.4
3.01667	44.3
3.03333	44.3
3.05000	44.3
3.06667	44.4
3.08333	44.3
3.10000	44.5
3.11667	44.4
3.13333	44.4
3.15000	44.3
3.16667	44.5
3.18333	44.3
3.20000	44.4
3.21667	44.4
3.23333	44.5
3.25000	44.3
3.26667	44.4
3.28333	44.3
3.30000	44.4
3.31667	44.4
3.33333	44.4
3.35000	44.4
3.36667	44.3
3.38333	44.3
3.40000	44.3
3.41667	44.4
3.43333	44.4
3.45000	44.4
3.46667	44.3
3.48333	44.4
3.50000	44.4
3.51667	44.4
3.53333	44.3
3.55000	44.4
3.56667	44.4
3.58333	44.3
3.60000	44.4
3.61667	44.1
3.63333	44.4
3.65000	44.4
3.66667	44.4
3.68333	44.4
3.70000	44.4
3.71667	44.4
3.73333	44.3
3.75000	44.4
3.76667	44.4
3.78333	44.3
3.80000	44.3
3.81667	44.3
3.83333	44.4
3.85000	44.3
3.86667	44.4
3.88333	44.3
3.90000	44.3
3.91667	44.4
3.93333	44.4
3.95000	44.4
3.96667	44.3
3.98333	44.4
4.00000	44.4
4.01667	44.4
4.03333	44.4
4.05000	44.4
4.06667	44.3
4.08333	44.3
4.10000	44.3
4.11667	44.5
4.13333	44.1
4.15000	44.3
4.16667	44.4
4.18333	44.1
4.20000	44.3
4.21667	44.3
4.23333	44.3
4.25000	44.1
4.26667	44.3
4.28333	44.4
4.30000	44.1
4.31667	44.4
4.33333	44.4
4.35000	44.4
4.36667	44.4
4.38333	44.4
4.40000	44.1
4.41667	44.3
4.43333	44.3
4.45000	44.3
4.46667	44.3
4.48333	44.3
4.50000	44.4
4.51667	44.3
4.53333	44.3
4.55000	44.4
4.56667	44.3
4.58333	44.1
4.60000	44.1
4.61667	44.3
4.63333	44.3
4.65000	44.3
4.66667	44.4
4.68333	44.1
4.70000	44.3
4.71667	44.3
4.73333	44.3
4.75000	44.1
4.76667	44.3
4.78333	44.3
4.80000	44.1
4.81667	44.1
4.83333	44.1
4.85000	44.1
4.86667	44.3
4.88333	44.1
4.90000	44.1
4.91667	44.4
4.93333	44.3
4.95000	44.1
4.96667	44.3
4.98333	44.3
5.00000	44.3
5.01667	44.3
5.03333	44.3
5.05000	44.3
5.06667	44.1
5.08333	44.1
5.10000	44.3
5.11667	44.4
5.13333	44.1
5.15000	44.1
5.16667	44.3
5.18333	44.3
5.20000	44.3
5.21667	44.3
5.23333	44.3
5.25000	44.1
5.26667	44.4
5.28333	44.4
5.30000	44.0
5.31667	44.1
5.33333	44.4
5.35000	44.3
5.36667	44.1
5.38333	44.1
5.40000	44.0
5.41667	44.1
5.43333	44.1
5.45000	44.1
5.46667	44.0
5.48333	44.1
5.50000	44.1
5.51667	44.0
5.53333	44.3
5.55000	44.3
5.56667	44.1
5.58333	44.1
5.60000	44.1
5.61667	44.1
5.63333	44.1
5.65000	44.1
5.66667	44.3
5.68333	44.3
5.70000	44.3
5.71667	44.1
5.73333	44.0
5.75000	44.0
5.76667	44.1
5.78333	44.3
5.80000	44.1
5.81667	44.0
5.83333	44.3
5.85000	44.0
5.86667	44.0
5.88333	44.1
5.90000	44.1
5.91667	44.1
5.93333	44.1
5.95000	44.3
5.96667	44.3
5.98333	44.1
6.00000	44.1
6.01667	44.1
6.03333	44.1
6.05000	44.3
6.06667	44.1
6.08333	44.1
6.10000	44.3
6.11667	44.1
6.13333	44.1
6.15000	44.1
6.16667	44.3
6.18333	44.1
6.20000	44.3
6.21667	44.3
6.23333	44.0
6.25000	44.3
6.26667	44.1
6.28333	44.3
6.30000	44.1
6.31667	44.3
6.33333	44.1
6.35000	44.1
6.36667	44.1
6.38333	44.0
6.40000	44.1
6.41667	44.1
6.43333	44.1
6.45000	44.1
6.46667	44.1
6.48333	44.1
6.50000	44.0
6.51667	44.1
6.53333	44.1
6.55000	44.1
6.56667	44.3
6.58333	44.1
6.60000	44.1
6.61667	44.0
6.63333	44.0
6.65000	44.1
6.66667	43.9
6.68333	44.1
6.70000	44.1
6.71667	44.1
6.73333	44.1
6.75000	44.0
6.76667	44.1
6.78333	44.0
6.80000	44.0
6.81667	44.4
6.83333	44.3
6.85000	44.0
6.86667	44.1
6.88333	44.1
6.90000	44.0
6.91667	44.1
6.93333	44.0
6.95000	44.1
6.96667	44.0
6.98333	44.3
7.00000	44.1
7.01667	44.0
7.03333	44.1
7.05000	44.1
7.06667	44.0
7.08333	44.1
7.10000	44.1
7.11667	44.0
7.13333	44.1
7.15000	44.0
7.16667	44.0
7.18333	43.9
7.20000	44.1
7.21667	44.1
7.23333	44.0
7.25000	44.1
7.26667	44.1
7.28333	43.9
7.30000	44.1
7.31667	44.1
7.33333	44.1
7.35000	44.0
7.36667	44.3
7.38333	44.1
7.40000	44.0
7.41667	44.0
7.43333	44.1
7.45000	44.1
7.46667	44.1
7.48333	44.0
7.50000	44.3
7.51667	44.0
7.53333	44.1
7.55000	44.0
7.56667	44.1
7.58333	44.0
7.60000	44.0
7.61667	44.0
7.63333	44.0
7.65000	44.0
7.66667	44.0
7.68333	44.0
7.70000	43.9
7.71667	44.1
7.73333	43.9
7.75000	44.0
7.76667	44.0
7.78333	44.0
7.80000	44.0
7.81667	44.0
7.83333	44.0
7.85000	43.9
7.86667	44.1
7.88333	44.0
7.90000	44.0
7.91667	44.0
7.93333	44.0
7.95000	44.0
7.96667	44.0
7.98333	44.0
8.00000	43.9
8.01667	43.9
8.03333	44.0
8.05000	44.0
8.06667	44.0
8.08333	43.9
8.10000	44.0
8.11667	43.8
8.13333	44.0
8.15000	43.9
8.16667	43.9
8.18333	43.9
8.20000	43.9
8.21667	44.0
8.23333	44.0
8.25000	44.0
8.26667	43.9
8.28333	43.9
8.30000	44.0
8.31667	44.0
8.33333	44.0
8.35000	43.9
8.36667	43.9
8.38333	43.9
8.40000	43.8
8.41667	44.0
8.43333	44.0
8.45000	43.8
8.46667	43.9
8.48333	44.0
8.50000	43.9
8.51667	43.9
8.53333	43.9
8.55000	43.9
8.56667	43.8
8.58333	43.9
8.60000	43.8
8.61667	43.9
8.63333	43.8
8.65000	43.9
8.66667	43.8
8.68333	43.9
8.70000	43.9
8.71667	43.8
8.73333	43.6
8.75000	43.8
8.76667	43.8
8.78333	43.8
8.80000	43.9
8.81667	43.8
8.83333	43.9
8.85000	43.8
8.86667	43.8
8.88333	43.8
8.90000	43.8
8.91667	43.8
8.93333	43.9
8.95000	43.6
8.96667	43.8
8.98333	43.9
9.00000	43.8
9.01667	43.8
9.03333	43.8
9.05000	43.6
9.06667	43.5
9.08333	43.8
9.10000	43.6
9.11667	43.8
9.13333	43.8
9.15000	43.5
9.16667	43.6
9.18333	43.6
9.20000	43.8
9.21667	43.8
9.23333	43.6
9.25000	43.6
9.26667	43.6
9.28333	43.8
9.30000	43.8
9.31667	43.5
9.33333	43.5
9.35000	43.6
9.36667	43.6
9.38333	43.8
9.40000	43.4
9.41667	43.6
9.43333	43.6
9.45000	43.5
9.46667	43.6
9.48333	43.8
9.50000	43.5
9.51667	43.5
9.53333	43.8
9.55000	43.8
9.56667	43.6
9.58333	43.5
9.60000	43.6
9.61667	43.6
9.63333	43.8
9.65000	43.6
9.66667	43.5
9.68333	43.5
9.70000	43.6
9.71667	43.4
9.73333	43.5
9.75000	43.5
9.76667	43.6
9.78333	43.5
9.80000	43.8
9.81667	43.6
9.83333	43.6
9.85000	43.6
9.86667	43.5
9.88333	43.6
9.90000	43.5
9.91667	43.6
9.93333	43.6
9.95000	43.6
9.96667	43.5
9.98333	43.6
10.00000	43.6
10.01667	43.6
10.03333	43.8
10.05000	43.6
10.06667	43.8
10.08333	43.5
10.10000	43.8
10.11667	43.5
10.13333	43.6
10.15000	43.6
10.16667	43.6
10.18333	43.5
10.20000	43.8
10.21667	43.8
10.23333	43.8
10.25000	43.5
10.26667	43.6
10.28333	43.6
10.30000	43.6
10.31667	43.6
10.33333	43.8
10.35000	43.6
10.36667	43.6
10.38333	43.6
10.40000	43.6
10.41667	43.8
10.43333	43.8
10.45000	43.5
10.46667	43.6
10.48333	43.8
10.50000	43.5
10.51667	43.5
10.53333	43.6
10.55000	43.6
10.56667	43.6
10.58333	43.6
10.60000	43.6
10.61667	43.6
10.63333	43.6
10.65000	43.6
10.66667	43.6
10.68333	43.6
10.70000	43.8
10.71667	43.6
10.73333	43.6
10.75000	43.6
10.76667	43.8
10.78333	43.6
10.80000	43.6
10.81667	43.5
10.83333	43.8
10.85000	43.8
10.86667	43.8
10.88333	43.6
10.90000	43.8
10.91667	43.6
10.93333	43.5
10.95000	43.6
10.96667	43.6
10.98333	43.8
11.00000	43.6

[LC Status Trace(UV Cell Temp.)]
Interval(msec)	1000
# of Points	661
Start Time(min)	0.000
End Time(min)	11.000
Intensity Units	C
Intensity Multiplier	1
R.Time (min)	Intensity
0.00000	39.99
0.01667	39.99
0.03333	39.97
0.05000	39.97
0.06667	39.95
0.08333	39.99
0.10000	39.99
0.11667	40.00
0.13333	40.02
0.15000	40.05
0.16667	40.06
0.18333	40.03
0.20000	40.03
0.21667	40.03
0.23333	40.02
0.25000	40.00
0.26667	40.00
0.28333	40.00
0.30000	40.00
0.31667	40.00
0.33333	40.00
0.35000	40.00
0.36667	39.99
0.38333	40.00
0.40000	40.00
0.41667	39.99
0.43333	40.00
0.45000	40.00
0.46667	40.00
0.48333	40.00
0.50000	39.99
0.51667	39.93
0.53333	39.96
0.55000	40.00
0.56667	40.00
0.58333	40.00
0.60000	40.00
0.61667	39.99
0.63333	40.00
0.65000	40.00
0.66667	40.00
0.68333	40.00
0.70000	40.00
0.71667	40.00
0.73333	40.00
0.75000	40.00
0.76667	39.99
0.78333	39.96
0.80000	39.98
0.81667	39.98
0.83333	40.00
0.85000	40.00
0.86667	40.00
0.88333	40.00
0.90000	40.00
0.91667	40.00
0.93333	40.00
0.95000	40.00
0.96667	40.00
0.98333	40.00
1.00000	40.00
1.01667	39.99
1.03333	40.00
1.05000	40.00
1.06667	40.00
1.08333	40.00
1.10000	40.00
1.11667	40.00
1.13333	40.02
1.15000	40.03
1.16667	40.00
1.18333	40.00
1.20000	39.99
1.21667	39.99
1.23333	39.98
1.25000	39.99
1.26667	39.99
1.28333	39.99
1.30000	40.00
1.31667	40.03
1.33333	40.02
1.35000	40.00
1.36667	40.00
1.38333	40.03
1.40000	39.99
1.41667	39.93
1.43333	39.93
1.45000	39.99
1.46667	40.03
1.48333	40.02
1.50000	40.00
1.51667	40.00
1.53333	40.00
1.55000	40.02
1.56667	40.00
1.58333	39.99
1.60000	39.99
1.61667	40.00
1.63333	40.00
1.65000	39.99
1.66667	40.00
1.68333	40.00
1.70000	39.99
1.71667	39.99
1.73333	40.00
1.75000	40.00
1.76667	39.95
1.78333	39.95
1.80000	40.00
1.81667	40.00
1.83333	39.99
1.85000	40.02
1.86667	40.00
1.88333	40.00
1.90000	40.00
1.91667	40.00
1.93333	40.00
1.95000	40.00
1.96667	40.00
1.98333	40.00
2.00000	40.00
2.01667	40.00
2.03333	40.00
2.05000	40.00
2.06667	40.00
2.08333	40.00
2.10000	40.00
2.11667	40.00
2.13333	40.00
2.15000	39.97
2.16667	39.93
2.18333	39.97
2.20000	40.00
2.21667	40.00
2.23333	40.03
2.25000	40.00
2.26667	39.99
2.28333	39.99
2.30000	40.00
2.31667	40.00
2.33333	40.02
2.35000	40.00
2.36667	40.00
2.38333	40.00
2.40000	40.00
2.41667	40.00
2.43333	40.00
2.45000	39.99
2.46667	39.99
2.48333	40.00
2.50000	40.00
2.51667	40.00
2.53333	40.00
2.55000	40.00
2.56667	40.00
2.58333	40.00
2.60000	40.02
2.61667	39.99
2.63333	40.00
2.65000	40.00
2.66667	39.99
2.68333	40.00
2.70000	40.00
2.71667	40.00
2.73333	40.00
2.75000	40.00
2.76667	40.03
2.78333	40.00
2.80000	40.00
2.81667	39.98
2.83333	39.99
2.85000	39.96
2.86667	39.98
2.88333	39.99
2.90000	40.00
2.91667	40.00
2.93333	40.00
2.95000	39.99
2.96667	39.99
2.98333	40.00
3.00000	39.99
3.01667	40.00
3.03333	40.00
3.05000	40.00
3.06667	40.00
3.08333	40.00
3.10000	40.00
3.11667	40.02
3.13333	39.99
3.15000	40.00
3.16667	40.00
3.18333	40.00
3.20000	40.00
3.21667	40.00
3.23333	40.00
3.25000	40.00
3.26667	40.00
3.28333	40.00
3.30000	40.00
3.31667	40.00
3.33333	40.00
3.35000	40.00
3.36667	40.00
3.38333	40.00
3.40000	40.00
3.41667	40.00
3.43333	39.99
3.45000	39.97
3.46667	39.98
3.48333	39.97
3.50000	39.93
3.51667	39.93
3.53333	39.93
3.55000	39.95
3.56667	39.98
3.58333	40.00
3.60000	40.00
3.61667	39.99
3.63333	40.00
3.65000	39.99
3.66667	40.00
3.68333	40.00
3.70000	39.99
3.71667	39.99
3.73333	40.00
3.75000	40.00
3.76667	40.00
3.78333	40.00
3.80000	40.00
3.81667	40.06
3.83333	40.00
3.85000	40.00
3.86667	40.00
3.88333	39.99
3.90000	40.00
3.91667	40.00
3.93333	40.00
3.95000	40.00
3.96667	40.00
3.98333	40.00
4.00000	40.00
4.01667	40.00
4.03333	40.00
4.05000	39.99
4.06667	40.00
4.08333	39.99
4.10000	39.99
4.11667	39.93
4.13333	39.97
4.15000	39.97
4.16667	39.98
4.18333	40.00
4.20000	40.02
4.21667	40.00
4.23333	40.00
4.25000	40.00
4.26667	40.02
4.28333	40.00
4.30000	40.00
4.31667	39.99
4.33333	40.00
4.35000	40.00
4.36667	40.02
4.38333	40.00
4.40000	39.99
4.41667	40.00
4.43333	40.00
4.45000	39.99
4.46667	40.00
4.48333	40.00
4.50000	40.00
4.51667	40.00
4.53333	40.00
4.55000	40.00
4.56667	40.02
4.58333	40.02
4.60000	40.02
4.61667	40.00
4.63333	40.00
4.65000	40.00
4.66667	40.00
4.68333	40.00
4.70000	39.99
4.71667	40.00
4.73333	39.99
4.75000	39.98
4.76667	39.96
4.78333	39.96
4.80000	39.97
4.81667	40.00
4.83333	40.00
4.85000	40.05
4.86667	40.00
4.88333	40.00
4.90000	40.00
4.91667	40.00
4.93333	40.00
4.95000	40.00
4.96667	40.00
4.98333	40.00
5.00000	40.00
5.01667	40.00
5.03333	40.00
5.05000	40.00
5.06667	40.00
5.08333	40.00
5.10000	40.00
5.11667	40.00
5.13333	40.00
5.15000	40.00
5.16667	40.00
5.18333	40.00
5.20000	40.00
5.21667	39.98
5.23333	40.00
5.25000	40.00
5.26667	39.93
5.28333	39.93
5.30000	39.97
5.31667	39.99
5.33333	40.00
5.35000	40.00
5.36667	40.00
5.38333	40.03
5.40000	40.02
5.41667	40.00
5.43333	39.99
5.45000	39.99
5.46667	40.00
5.48333	40.00
5.50000	40.00
5.51667	40.00
5.53333	40.00
5.55000	40.02
5.56667	40.00
5.58333	40.00
5.60000	40.00
5.61667	40.00
5.63333	40.00
5.65000	40.00
5.66667	39.99
5.68333	40.00
5.70000	39.99
5.71667	40.00
5.73333	40.00
5.75000	40.00
5.76667	39.99
5.78333	39.98
5.80000	39.93
5.81667	39.97
5.83333	39.98
5.85000	39.99
5.86667	40.00
5.88333	39.99
5.90000	40.00
5.91667	40.00
5.93333	40.00
5.95000	40.00
5.96667	40.00
5.98333	40.00
6.00000	40.05
6.01667	40.00
6.03333	40.00
6.05000	40.00
6.06667	39.99
6.08333	39.95
6.10000	40.00
6.11667	40.00
6.13333	40.00
6.15000	40.00
6.16667	40.03
6.18333	40.00
6.20000	39.99
6.21667	39.95
6.23333	39.99
6.25000	40.00
6.26667	39.99
6.28333	40.00
6.30000	40.00
6.31667	40.00
6.33333	39.98
6.35000	39.97
6.36667	39.99
6.38333	40.00
6.40000	40.00
6.41667	39.99
6.43333	39.99
6.45000	39.99
6.46667	39.98
6.48333	39.98
6.50000	39.99
6.51667	40.00
6.53333	39.99
6.55000	39.99
6.56667	40.00
6.58333	40.00
6.60000	40.00
6.61667	40.00
6.63333	40.00
6.65000	40.00
6.66667	40.00
6.68333	40.00
6.70000	40.00
6.71667	39.99
6.73333	40.00
6.75000	40.00
6.76667	40.00
6.78333	40.00
6.80000	40.00
6.81667	40.03
6.83333	40.02
6.85000	40.00
6.86667	40.00
6.88333	40.00
6.90000	40.00
6.91667	40.00
6.93333	39.99
6.95000	39.99
6.96667	40.00
6.98333	40.00
7.00000	40.00
7.01667	40.00
7.03333	40.00
7.05000	39.99
7.06667	40.00
7.08333	40.00
7.10000	40.00
7.11667	40.00
7.13333	40.00
7.15000	39.99
7.16667	40.00
7.18333	40.00
7.20000	40.00
7.21667	40.00
7.23333	40.00
7.25000	40.02
7.26667	40.03
7.28333	40.00
7.30000	40.00
7.31667	40.00
7.33333	40.00
7.35000	40.00
7.36667	40.02
7.38333	40.02
7.40000	40.02
7.41667	40.00
7.43333	40.00
7.45000	40.00
7.46667	40.00
7.48333	40.00
7.50000	40.00
7.51667	40.00
7.53333	40.00
7.55000	40.00
7.56667	40.00
7.58333	40.00
7.60000	40.00
7.61667	40.00
7.63333	39.93
7.65000	39.95
7.66667	40.00
7.68333	40.00
7.70000	40.00
7.71667	40.00
7.73333	40.00
7.75000	40.00
7.76667	40.00
7.78333	40.00
7.80000	40.00
7.81667	39.99
7.83333	40.00
7.85000	40.00
7.86667	39.97
7.88333	40.00
7.90000	40.03
7.91667	39.99
7.93333	40.00
7.95000	40.00
7.96667	39.95
7.98333	39.99
8.00000	40.00
8.01667	40.00
8.03333	40.00
8.05000	40.02
8.06667	39.96
8.08333	39.99
8.10000	40.00
8.11667	40.00
8.13333	39.99
8.15000	40.00
8.16667	39.98
8.18333	40.02
8.20000	40.00
8.21667	40.00
8.23333	40.00
8.25000	40.00
8.26667	40.03
8.28333	40.00
8.30000	40.00
8.31667	39.99
8.33333	39.97
8.35000	39.99
8.36667	40.00
8.38333	40.00
8.40000	40.00
8.41667	39.99
8.43333	40.02
8.45000	40.03
8.46667	40.00
8.48333	40.00
8.50000	39.98
8.51667	39.97
8.53333	40.02
8.55000	40.00
8.56667	40.02
8.58333	39.99
8.60000	39.99
8.61667	40.00
8.63333	39.99
8.65000	39.99
8.66667	39.99
8.68333	40.00
8.70000	39.99
8.71667	40.06
8.73333	39.97
8.75000	39.97
8.76667	40.00
8.78333	40.00
8.80000	40.00
8.81667	40.00
8.83333	40.00
8.85000	40.02
8.86667	39.99
8.88333	40.00
8.90000	40.00
8.91667	40.00
8.93333	39.97
8.95000	40.00
8.96667	40.00
8.98333	40.00
9.00000	40.00
9.01667	40.00
9.03333	39.99
9.05000	40.00
9.06667	40.00
9.08333	39.97
9.10000	39.98
9.11667	39.99
9.13333	40.00
9.15000	40.00
9.16667	40.00
9.18333	39.99
9.20000	39.99
9.21667	40.00
9.23333	40.00
9.25000	39.96
9.26667	39.98
9.28333	40.00
9.30000	40.00
9.31667	39.99
9.33333	40.00
9.35000	40.00
9.36667	40.00
9.38333	40.00
9.40000	40.00
9.41667	40.00
9.43333	39.99
9.45000	40.00
9.46667	40.00
9.48333	40.06
9.50000	40.05
9.51667	39.98
9.53333	39.93
9.55000	39.93
9.56667	39.99
9.58333	39.97
9.60000	39.95
9.61667	39.99
9.63333	40.00
9.65000	40.00
9.66667	40.00
9.68333	40.00
9.70000	40.00
9.71667	40.03
9.73333	40.00
9.75000	40.00
9.76667	40.00
9.78333	40.00
9.80000	40.00
9.81667	40.00
9.83333	40.00
9.85000	40.00
9.86667	40.03
9.88333	40.02
9.90000	40.02
9.91667	40.00
9.93333	40.00
9.95000	40.00
9.96667	40.00
9.98333	40.00
10.00000	40.00
10.01667	40.02
10.03333	40.00
10.05000	40.00
10.06667	40.02
10.08333	40.03
10.10000	40.02
10.11667	40.00
10.13333	40.02
10.15000	40.00
10.16667	39.99
10.18333	40.00
10.20000	39.99
10.21667	40.00
10.23333	39.99
10.25000	40.00
10.26667	40.00
10.28333	40.00
10.30000	40.03
10.31667	40.00
10.33333	40.00
10.35000	40.00
10.36667	40.03
10.38333	40.00
10.40000	40.00
10.41667	40.00
10.43333	40.00
10.45000	40.02
10.46667	40.05
10.48333	40.00
10.50000	40.00
10.51667	40.00
10.53333	39.99
10.55000	39.99
10.56667	40.00
10.58333	40.02
10.60000	40.00
10.61667	40.00
10.63333	39.97
10.65000	39.98
10.66667	40.00
10.68333	40.00
10.70000	40.00
10.71667	40.00
10.73333	40.00
10.75000	40.00
10.76667	40.00
10.78333	40.00
10.80000	40.02
10.81667	40.00
10.83333	40.00
10.85000	40.00
10.86667	40.00
10.88333	40.02
10.90000	40.02
10.91667	39.99
10.93333	40.00
10.95000	39.99
10.96667	40.00
10.98333	40.00
11.00000	40.00

[LC Status Trace(RF B Cell Temp.)]
Interval(msec)	1000
# of Points	661
Start Time(min)	0.000
End Time(min)	11.000
Intensity Units	C
Intensity Multiplier	1
R.Time (min)	Intensity
0.00000	30.05
0.01667	30.05
0.03333	30.05
0.05000	30.05
0.06667	30.05
0.08333	30.05
0.10000	30.05
0.11667	30.05
0.13333	30.05
0.15000	30.05
0.16667	30.05
0.18333	30.06
0.20000	30.06
0.21667	30.06
0.23333	30.06
0.25000	30.06
0.26667	30.06
0.28333	30.06
0.30000	30.06
0.31667	30.06
0.33333	30.06
0.35000	30.06
0.36667	30.06
0.38333	30.06
0.40000	30.06
0.41667	30.06
0.43333	30.06
0.45000	30.06
0.46667	30.06
0.48333	30.06
0.50000	30.06
0.51667	30.06
0.53333	30.06
0.55000	30.06
0.56667	30.06
0.58333	30.06
0.60000	30.06
0.61667	30.06
0.63333	30.06
0.65000	30.06
0.66667	30.06
0.68333	30.06
0.70000	30.06
0.71667	30.06
0.73333	30.06
0.75000	30.06
0.76667	30.06
0.78333	30.06
0.80000	30.06
0.81667	30.06
0.83333	30.06
0.85000	30.06
0.86667	30.06
0.88333	30.06
0.90000	30.06
0.91667	30.06
0.93333	30.06
0.95000	30.06
0.96667	30.07
0.98333	30.07
1.00000	30.07
1.01667	30.07
1.03333	30.07
1.05000	30.07
1.06667	30.07
1.08333	30.07
1.10000	30.07
1.11667	30.07
1.13333	30.07
1.15000	30.07
1.16667	30.07
1.18333	30.07
1.20000	30.07
1.21667	30.07
1.23333	30.07
1.25000	30.07
1.26667	30.07
1.28333	30.07
1.30000	30.07
1.31667	30.07
1.33333	30.07
1.35000	30.07
1.36667	30.07
1.38333	30.07
1.40000	30.07
1.41667	30.07
1.43333	30.07
1.45000	30.07
1.46667	30.07
1.48333	30.07
1.50000	30.07
1.51667	30.07
1.53333	30.07
1.55000	30.07
1.56667	30.07
1.58333	30.07
1.60000	30.07
1.61667	30.07
1.63333	30.07
1.65000	30.07
1.66667	30.07
1.68333	30.07
1.70000	30.07
1.71667	30.07
1.73333	30.07
1.75000	30.07
1.76667	30.07
1.78333	30.07
1.80000	30.07
1.81667	30.07
1.83333	30.07
1.85000	30.07
1.86667	30.07
1.88333	30.07
1.90000	30.07
1.91667	30.07
1.93333	30.07
1.95000	30.07
1.96667	30.07
1.98333	30.07
2.00000	30.07
2.01667	30.07
2.03333	30.07
2.05000	30.07
2.06667	30.07
2.08333	30.07
2.10000	30.07
2.11667	30.07
2.13333	30.07
2.15000	30.07
2.16667	30.07
2.18333	30.07
2.20000	30.07
2.21667	30.07
2.23333	30.07
2.25000	30.07
2.26667	30.07
2.28333	30.07
2.30000	30.07
2.31667	30.07
2.33333	30.07
2.35000	30.07
2.36667	30.07
2.38333	30.07
2.40000	30.07
2.41667	30.07
2.43333	30.07
2.45000	30.06
2.46667	30.06
2.48333	30.06
2.50000	30.06
2.51667	30.06
2.53333	30.06
2.55000	30.06
2.56667	30.06
2.58333	30.06
2.60000	30.06
2.61667	30.06
2.63333	30.06
2.65000	30.06
2.66667	30.06
2.68333	30.06
2.70000	30.06
2.71667	30.06
2.73333	30.06
2.75000	30.06
2.76667	30.06
2.78333	30.06
2.80000	30.06
2.81667	30.06
2.83333	30.06
2.85000	30.06
2.86667	30.06
2.88333	30.06
2.90000	30.06
2.91667	30.06
2.93333	30.06
2.95000	30.06
2.96667	30.06
2.98333	30.06
3.00000	30.06
3.01667	30.06
3.03333	30.06
3.05000	30.06
3.06667	30.05
3.08333	30.05
3.10000	30.05
3.11667	30.05
3.13333	30.05
3.15000	30.05
3.16667	30.05
3.18333	30.05
3.20000	30.05
3.21667	30.05
3.23333	30.05
3.25000	30.05
3.26667	30.05
3.28333	30.05
3.30000	30.05
3.31667	30.05
3.33333	30.05
3.35000	30.05
3.36667	30.05
3.38333	30.05
3.40000	30.05
3.41667	30.05
3.43333	30.05
3.45000	30.05
3.46667	30.05
3.48333	30.05
3.50000	30.05
3.51667	30.05
3.53333	30.05
3.55000	30.05
3.56667	30.05
3.58333	30.05
3.60000	30.05
3.61667	30.05
3.63333	30.05
3.65000	30.05
3.66667	30.04
3.68333	30.04
3.70000	30.04
3.71667	30.04
3.73333	30.04
3.75000	30.04
3.76667	30.04
3.78333	30.04
3.80000	30.04
3.81667	30.04
3.83333	30.04
3.85000	30.04
3.86667	30.04
3.88333	30.04
3.90000	30.04
3.91667	30.04
3.93333	30.04
3.95000	30.04
3.96667	30.04
3.98333	30.04
4.00000	30.04
4.01667	30.04
4.03333	30.04
4.05000	30.04
4.06667	30.04
4.08333	30.04
4.10000	30.04
4.11667	30.04
4.13333	30.04
4.15000	30.04
4.16667	30.04
4.18333	30.04
4.20000	30.04
4.21667	30.04
4.23333	30.04
4.25000	30.04
4.26667	30.04
4.28333	30.04
4.30000	30.04
4.31667	30.04
4.33333	30.04
4.35000	30.04
4.36667	30.04
4.38333	30.04
4.40000	30.04
4.41667	30.04
4.43333	30.04
4.45000	30.04
4.46667	30.04
4.48333	30.04
4.50000	30.04
4.51667	30.05
4.53333	30.05
4.55000	30.05
4.56667	30.05
4.58333	30.05
4.60000	30.05
4.61667	30.05
4.63333	30.05
4.65000	30.05
4.66667	30.05
4.68333	30.05
4.70000	30.05
4.71667	30.05
4.73333	30.05
4.75000	30.05
4.76667	30.05
4.78333	30.05
4.80000	30.05
4.81667	30.05
4.83333	30.05
4.85000	30.05
4.86667	30.05
4.88333	30.05
4.90000	30.05
4.91667	30.05
4.93333	30.05
4.95000	30.05
4.96667	30.05
4.98333	30.05
5.00000	30.05
5.01667	30.05
5.03333	30.05
5.05000	30.05
5.06667	30.05
5.08333	30.05
5.10000	30.05
5.11667	30.05
5.13333	30.05
5.15000	30.05
5.16667	30.05
5.18333	30.05
5.20000	30.05
5.21667	30.05
5.23333	30.05
5.25000	30.05
5.26667	30.05
5.28333	30.05
5.30000	30.05
5.31667	30.05
5.33333	30.05
5.35000	30.05
5.36667	30.05
5.38333	30.05
5.40000	30.05
5.41667	30.05
5.43333	30.05
5.45000	30.05
5.46667	30.05
5.48333	30.05
5.50000	30.06
5.51667	30.06
5.53333	30.06
5.55000	30.06
5.56667	30.06
5.58333	30.06
5.60000	30.06
5.61667	30.06
5.63333	30.06
5.65000	30.06
5.66667	30.06
5.68333	30.06
5.70000	30.06
5.71667	30.06
5.73333	30.06
5.75000	30.06
5.76667	30.06
5.78333	30.06
5.80000	30.06
5.81667	30.06
5.83333	30.06
5.85000	30.06
5.86667	30.06
5.88333	30.06
5.90000	30.06
5.91667	30.06
5.93333	30.06
5.95000	30.06
5.96667	30.06
5.98333	30.06
6.00000	30.06
6.01667	30.06
6.03333	30.06
6.05000	30.06
6.06667	30.06
6.08333	30.06
6.10000	30.06
6.11667	30.06
6.13333	30.06
6.15000	30.06
6.16667	30.06
6.18333	30.06
6.20000	30.06
6.21667	30.06
6.23333	30.06
6.25000	30.06
6.26667	30.06
6.28333	30.06
6.30000	30.07
6.31667	30.07
6.33333	30.07
6.35000	30.07
6.36667	30.07
6.38333	30.07
6.40000	30.07
6.41667	30.07
6.43333	30.07
6.45000	30.07
6.46667	30.07
6.48333	30.07
6.50000	30.07
6.51667	30.07
6.53333	30.07
6.55000	30.07
6.56667	30.07
6.58333	30.07
6.60000	30.07
6.61667	30.07
6.63333	30.07
6.65000	30.07
6.66667	30.07
6.68333	30.07
6.70000	30.07
6.71667	30.07
6.73333	30.07
6.75000	30.07
6.76667	30.07
6.78333	30.08
6.80000	30.08
6.81667	30.08
6.83333	30.08
6.85000	30.08
6.86667	30.08
6.88333	30.08
6.90000	30.08
6.91667	30.08
6.93333	30.08
6.95000	30.08
6.96667	30.08
6.98333	30.08
7.00000	30.08
7.01667	30.08
7.03333	30.08
7.05000	30.08
7.06667	30.08
7.08333	30.08
7.10000	30.08
7.11667	30.08
7.13333	30.08
7.15000	30.08
7.16667	30.08
7.18333	30.08
7.20000	30.08
7.21667	30.08
7.23333	30.08
7.25000	30.08
7.26667	30.08
7.28333	30.08
7.30000	30.08
7.31667	30.08
7.33333	30.08
7.35000	30.08
7.36667	30.08
7.38333	30.08
7.40000	30.08
7.41667	30.08
7.43333	30.08
7.45000	30.08
7.46667	30.08
7.48333	30.09
7.50000	30.08
7.51667	30.08
7.53333	30.09
7.55000	30.09
7.56667	30.09
7.58333	30.09
7.60000	30.09
7.61667	30.09
7.63333	30.09
7.65000	30.09
7.66667	30.09
7.68333	30.09
7.70000	30.09
7.71667	30.09
7.73333	30.09
7.75000	30.09
7.76667	30.09
7.78333	30.08
7.80000	30.08
7.81667	30.08
7.83333	30.08
7.85000	30.08
7.86667	30.08
7.88333	30.08
7.90000	30.08
7.91667	30.08
7.93333	30.08
7.95000	30.08
7.96667	30.08
7.98333	30.08
8.00000	30.08
8.01667	30.08
8.03333	30.08
8.05000	30.08
8.06667	30.08
8.08333	30.08
8.10000	30.08
8.11667	30.08
8.13333	30.08
8.15000	30.08
8.16667	30.08
8.18333	30.08
8.20000	30.08
8.21667	30.08
8.23333	30.08
8.25000	30.08
8.26667	30.08
8.28333	30.08
8.30000	30.08
8.31667	30.08
8.33333	30.08
8.35000	30.08
8.36667	30.08
8.38333	30.08
8.40000	30.08
8.41667	30.08
8.43333	30.08
8.45000	30.08
8.46667	30.08
8.48333	30.08
8.50000	30.08
8.51667	30.08
8.53333	30.08
8.55000	30.08
8.56667	30.08
8.58333	30.08
8.60000	30.08
8.61667	30.08
8.63333	30.08
8.65000	30.08
8.66667	30.08
8.68333	30.08
8.70000	30.07
8.71667	30.07
8.73333	30.07
8.75000	30.07
8.76667	30.07
8.78333	30.07
8.80000	30.07
8.81667	30.07
8.83333	30.07
8.85000	30.07
8.86667	30.07
8.88333	30.07
8.90000	30.07
8.91667	30.07
8.93333	30.07
8.95000	30.07
8.96667	30.07
8.98333	30.07
9.00000	30.07
9.01667	30.07
9.03333	30.07
9.05000	30.07
9.06667	30.07
9.08333	30.07
9.10000	30.07
9.11667	30.07
9.13333	30.07
9.15000	30.07
9.16667	30.07
9.18333	30.07
9.20000	30.07
9.21667	30.07
9.23333	30.07
9.25000	30.07
9.26667	30.07
9.28333	30.07
9.30000	30.07
9.31667	30.07
9.33333	30.07
9.35000	30.07
9.36667	30.07
9.38333	30.07
9.40000	30.06
9.41667	30.06
9.43333	30.06
9.45000	30.06
9.46667	30.06
9.48333	30.06
9.50000	30.06
9.51667	30.06
9.53333	30.06
9.55000	30.06
9.56667	30.06
9.58333	30.06
9.60000	30.06
9.61667	30.06
9.63333	30.06
9.65000	30.06
9.66667	30.06
9.68333	30.06
9.70000	30.06
9.71667	30.06
9.73333	30.06
9.75000	30.06
9.76667	30.06
9.78333	30.06
9.80000	30.06
9.81667	30.06
9.83333	30.06
9.85000	30.06
9.86667	30.06
9.88333	30.06
9.90000	30.06
9.91667	30.06
9.93333	30.06
9.95000	30.06
9.96667	30.06
9.98333	30.06
10.00000	30.06
10.01667	30.05
10.03333	30.05
10.05000	30.05
10.06667	30.05
10.08333	30.05
10.10000	30.05
10.11667	30.05
10.13333	30.05
10.15000	30.05
10.16667	30.05
10.18333	30.05
10.20000	30.05
10.21667	30.05
10.23333	30.05
10.25000	30.05
10.26667	30.05
10.28333	30.05
10.30000	30.05
10.31667	30.05
10.33333	30.05
10.35000	30.05
10.36667	30.05
10.38333	30.05
10.40000	30.05
10.41667	30.05
10.43333	30.05
10.45000	30.05
10.46667	30.05
10.48333	30.05
10.50000	30.05
10.51667	30.04
10.53333	30.04
10.55000	30.04
10.56667	30.04
10.58333	30.04
10.60000	30.04
10.61667	30.04
10.63333	30.04
10.65000	30.04
10.66667	30.04
10.68333	30.04
10.70000	30.04
10.71667	30.04
10.73333	30.04
10.75000	30.04
10.76667	30.04
10.78333	30.04
10.80000	30.04
10.81667	30.04
10.83333	30.04
10.85000	30.04
10.86667	30.04
10.88333	30.04
10.90000	30.04
10.91667	30.04
10.93333	30.04
10.95000	30.04
10.96667	30.03
10.98333	30.03
11.00000	30.03

[Fraction Collection Report]
# of Fractions	0

