[Header]
Application Name	LCsolution
Version	1.25
Data File Name	D:\1F-FSEC\140725ayase_166_55_19.lcd
Output Date	2014/07/28
Output Time	11:34:39

[File Information]
Type	Data File
Generated	2014/07/26 7:59:27
Generated by	System Administrator
Modified	2014/07/26 8:10:55
Modified by	System Administrator

[Sample Information]
Operator Name	System Administrator
Acquired	2014/07/26 7:59:53
Sample Type	0:Unknown
Level	0
Sample Name	166_55
Sample ID	
ISTD Amount 1	1
ISTD Amount 2	1
ISTD Amount 3	1
ISTD Amount 4	1
ISTD Amount 5	1
ISTD Amount 6	1
ISTD Amount 7	1
ISTD Amount 8	1
ISTD Amount 9	1
ISTD Amount 10	1
ISTD Amount 11	1
ISTD Amount 12	1
ISTD Amount 13	1
ISTD Amount 14	1
ISTD Amount 15	1
ISTD Amount 16	1
ISTD Amount 17	1
ISTD Amount 18	1
ISTD Amount 19	1
ISTD Amount 20	1
ISTD Amount 21	1
ISTD Amount 22	1
ISTD Amount 23	1
ISTD Amount 24	1
ISTD Amount 25	1
ISTD Amount 26	1
ISTD Amount 27	1
ISTD Amount 28	1
ISTD Amount 29	1
ISTD Amount 30	1
ISTD Amount 31	1
ISTD Amount 32	1
Sample Amount	1
Dilution Factor	1
Vial#	3
Injection Volume	50

[Original Files]
Data File	D:\1F-FSEC\140725ayase_166_55_19.lcd
Method File	D:\1F-FSEC\2-B-P3NTA_miniINC_0.36_11m.lcm
Batch File	D:\1F-FSEC\140725ayase.lcb
Report Format File	C:\LabSolutions\LCsolution\System\Default.lcr
Tuning File	

[File Description]


[Configuration]
# of Detectors	2
Detector ID	Detector A	Detector B
Detector Name	åüèoäÌA	åüèoäÌB
# of Channels	1	1

[Peak Table(Detector A-Ch1)]
# of Peaks	5
Peak#	R.Time	I.Time	F.Time	Area	Height	A/H	Conc.	Mark	ID#	Name	k'	Plate #	Plate Ht.	Tailing	Resolution	Sep.Factor	Conc. %	Norm Conc.
1	1.428	0.800	2.475	1311086	34383	38.1320	0.0000	   			0.000	31	4785.351	1.216	0.000	0.000	0.0000	0.0000
2	4.405	2.992	5.433	8050623	125088	64.3600	0.0000	   			2.084	114	1320.083	0.000	2.227	0.000	0.0000	0.0000
3	7.536	5.433	7.733	18274049	251589	72.6340	0.0000	 V 			4.276	110	1364.620	0.000	1.383	2.052	0.0000	0.0000
4	8.157	7.733	8.700	21436419	594388	36.0650	0.0000	 V 			4.710	1078	139.205	0.000	0.321	1.102	0.0000	0.0000
5	9.456	8.700	10.967	58031387	1038346	55.8880	0.0000	 V 			5.620	702	213.611	0.000	1.073	1.193	0.0000	0.0000

[Peak Table(Detector B-Ch1)]
# of Peaks	2
Peak#	R.Time	I.Time	F.Time	Area	Height	A/H	Conc.	Mark	ID#	Name	k'	Plate #	Plate Ht.	Tailing	Resolution	Sep.Factor	Conc. %	Norm Conc.
1	4.775	3.458	6.717	26762532	485362	55.1390	0.0000	   			0.000	271	554.003	0.000	0.000	0.000	0.0000	0.0000
2	7.825	6.717	10.967	131649608	2153971	61.1190	0.0000	 V 			0.639	558	268.814	2.013	2.454	0.000	0.0000	0.0000

[Peak Table(PDA-Ch1)]
# of Peaks	0

[Compound Results(Detector A)]
# of IDs	0

[Compound Results(Detector B)]
# of IDs	0

[Compound Results(PDA)]
# of IDs	0

[Group Results(Detector A)]
# of Groups	0

[Group Results(Detector B)]
# of Groups	0

[Group Results(PDA)]
# of Groups	0

[LC Chromatogram(Detector A-Ch1)]
Interval(msec)	500
# of Points	1321
Start Time(min)	0.000
End Time(min)	11.000
Intensity Units	mV
Intensity Multiplier	0.001
Wavelength(nm)	280
R.Time (min)	Intensity
0.00000	-11911
0.00833	-11911
0.01667	-108
0.02500	-304
0.03333	-187
0.04167	-186
0.05000	-346
0.05833	-500
0.06667	-652
0.07500	-802
0.08333	-954
0.09167	-1108
0.10000	-1264
0.10833	-1420
0.11667	-1578
0.12500	-1736
0.13333	-1896
0.14167	-2054
0.15000	-2210
0.15833	-2365
0.16667	-2516
0.17500	-2666
0.18333	-2813
0.19167	-2960
0.20000	-3104
0.20833	-3245
0.21667	-3383
0.22500	-3519
0.23333	-3654
0.24167	-3789
0.25000	-3923
0.25833	-4055
0.26667	-4185
0.27500	-4313
0.28333	-4441
0.29167	-4569
0.30000	-4697
0.30833	-4824
0.31667	-4953
0.32500	-5082
0.33333	-5210
0.34167	-5339
0.35000	-5468
0.35833	-5598
0.36667	-5727
0.37500	-5853
0.38333	-5978
0.39167	-6101
0.40000	-6222
0.40833	-6342
0.41667	-6459
0.42500	-6575
0.43333	-6691
0.44167	-6805
0.45000	-6916
0.45833	-7028
0.46667	-7140
0.47500	-7253
0.48333	-7368
0.49167	-7481
0.50000	-7593
0.50833	-7704
0.51667	-7814
0.52500	-7924
0.53333	-8032
0.54167	-8138
0.55000	-8244
0.55833	-8349
0.56667	-8454
0.57500	-8558
0.58333	-8661
0.59167	-8763
0.60000	-8864
0.60833	-8964
0.61667	-9062
0.62500	-9158
0.63333	-9251
0.64167	-9340
0.65000	-9428
0.65833	-9513
0.66667	-9596
0.67500	-9678
0.68333	-9756
0.69167	-9832
0.70000	-9905
0.70833	-9974
0.71667	-10038
0.72500	-10096
0.73333	-10152
0.74167	-10204
0.75000	-10249
0.75833	-10287
0.76667	-10320
0.77500	-10347
0.78333	-10367
0.79167	-10382
0.80000	-10387
0.80833	-10383
0.81667	-10370
0.82500	-10348
0.83333	-10316
0.84167	-10275
0.85000	-10223
0.85833	-10160
0.86667	-10086
0.87500	-9998
0.88333	-9896
0.89167	-9779
0.90000	-9648
0.90833	-9505
0.91667	-9347
0.92500	-9169
0.93333	-8975
0.94167	-8761
0.95000	-8528
0.95833	-8277
0.96667	-8007
0.97500	-7718
0.98333	-7406
0.99167	-7074
1.00000	-6718
1.00833	-6338
1.01667	-5938
1.02500	-5517
1.03333	-5073
1.04167	-4606
1.05000	-4116
1.05833	-3605
1.06667	-3073
1.07500	-2519
1.08333	-1946
1.09167	-1354
1.10000	-741
1.10833	-110
1.11667	540
1.12500	1205
1.13333	1884
1.14167	2574
1.15000	3277
1.15833	3989
1.16667	4712
1.17500	5441
1.18333	6172
1.19167	6906
1.20000	7640
1.20833	8372
1.21667	9102
1.22500	9824
1.23333	10538
1.24167	11243
1.25000	11936
1.25833	12612
1.26667	13271
1.27500	13912
1.28333	14533
1.29167	15132
1.30000	15705
1.30833	16251
1.31667	16771
1.32500	17262
1.33333	17720
1.34167	18146
1.35000	18537
1.35833	18895
1.36667	19215
1.37500	19497
1.38333	19744
1.39167	19952
1.40000	20122
1.40833	20254
1.41667	20347
1.42500	20401
1.43333	20417
1.44167	20395
1.45000	20335
1.45833	20238
1.46667	20103
1.47500	19933
1.48333	19728
1.49167	19488
1.50000	19216
1.50833	18911
1.51667	18576
1.52500	18213
1.53333	17822
1.54167	17405
1.55000	16963
1.55833	16495
1.56667	16006
1.57500	15495
1.58333	14963
1.59167	14414
1.60000	13850
1.60833	13270
1.61667	12675
1.62500	12069
1.63333	11454
1.64167	10831
1.65000	10200
1.65833	9562
1.66667	8920
1.67500	8273
1.68333	7624
1.69167	6974
1.70000	6324
1.70833	5675
1.71667	5028
1.72500	4385
1.73333	3743
1.74167	3105
1.75000	2473
1.75833	1849
1.76667	1233
1.77500	624
1.78333	23
1.79167	-571
1.80000	-1155
1.80833	-1729
1.81667	-2294
1.82500	-2849
1.83333	-3391
1.84167	-3922
1.85000	-4443
1.85833	-4954
1.86667	-5453
1.87500	-5941
1.88333	-6418
1.89167	-6882
1.90000	-7334
1.90833	-7776
1.91667	-8207
1.92500	-8625
1.93333	-9032
1.94167	-9429
1.95000	-9815
1.95833	-10189
1.96667	-10552
1.97500	-10905
1.98333	-11247
1.99167	-11575
2.00000	-11894
2.00833	-12204
2.01667	-12507
2.02500	-12801
2.03333	-13085
2.04167	-13360
2.05000	-13624
2.05833	-13881
2.06667	-14130
2.07500	-14370
2.08333	-14602
2.09167	-14826
2.10000	-15045
2.10833	-15256
2.11667	-15458
2.12500	-15654
2.13333	-15843
2.14167	-16025
2.15000	-16202
2.15833	-16372
2.16667	-16536
2.17500	-16694
2.18333	-16846
2.19167	-16994
2.20000	-17138
2.20833	-17276
2.21667	-17410
2.22500	-17539
2.23333	-17662
2.24167	-17780
2.25000	-17896
2.25833	-18009
2.26667	-18118
2.27500	-18223
2.28333	-18327
2.29167	-18427
2.30000	-18522
2.30833	-18614
2.31667	-18703
2.32500	-18787
2.33333	-18869
2.34167	-18948
2.35000	-19024
2.35833	-19098
2.36667	-19171
2.37500	-19241
2.38333	-19308
2.39167	-19374
2.40000	-19437
2.40833	-19499
2.41667	-19559
2.42500	-19617
2.43333	-19673
2.44167	-19725
2.45000	-19777
2.45833	-19828
2.46667	-19878
2.47500	-19926
2.48333	-19972
2.49167	-20015
2.50000	-20057
2.50833	-20097
2.51667	-20137
2.52500	-20177
2.53333	-20217
2.54167	-20254
2.55000	-20287
2.55833	-20320
2.56667	-20351
2.57500	-20382
2.58333	-20413
2.59167	-20441
2.60000	-20468
2.60833	-20495
2.61667	-20522
2.62500	-20548
2.63333	-20571
2.64167	-20595
2.65000	-20618
2.65833	-20640
2.66667	-20661
2.67500	-20682
2.68333	-20698
2.69167	-20715
2.70000	-20732
2.70833	-20748
2.71667	-20762
2.72500	-20775
2.73333	-20788
2.74167	-20801
2.75000	-20812
2.75833	-20822
2.76667	-20830
2.77500	-20838
2.78333	-20846
2.79167	-20851
2.80000	-20854
2.80833	-20855
2.81667	-20857
2.82500	-20857
2.83333	-20854
2.84167	-20850
2.85000	-20843
2.85833	-20835
2.86667	-20827
2.87500	-20815
2.88333	-20803
2.89167	-20787
2.90000	-20770
2.90833	-20750
2.91667	-20729
2.92500	-20706
2.93333	-20681
2.94167	-20653
2.95000	-20621
2.95833	-20586
2.96667	-20549
2.97500	-20510
2.98333	-20466
2.99167	-20420
3.00000	-20369
3.00833	-20314
3.01667	-20255
3.02500	-20192
3.03333	-20127
3.04167	-20059
3.05000	-19987
3.05833	-19910
3.06667	-19828
3.07500	-19741
3.08333	-19648
3.09167	-19549
3.10000	-19446
3.10833	-19338
3.11667	-19223
3.12500	-19103
3.13333	-18977
3.14167	-18843
3.15000	-18700
3.15833	-18547
3.16667	-18379
3.17500	-18201
3.18333	-18011
3.19167	-17805
3.20000	-17581
3.20833	-17337
3.21667	-17069
3.22500	-16779
3.23333	-16463
3.24167	-16117
3.25000	-15740
3.25833	-15329
3.26667	-14880
3.27500	-14393
3.28333	-13870
3.29167	-13307
3.30000	-12708
3.30833	-12071
3.31667	-11398
3.32500	-10692
3.33333	-9957
3.34167	-9200
3.35000	-8425
3.35833	-7636
3.36667	-6840
3.37500	-6044
3.38333	-5251
3.39167	-4467
3.40000	-3698
3.40833	-2949
3.41667	-2224
3.42500	-1529
3.43333	-864
3.44167	-237
3.45000	354
3.45833	908
3.46667	1424
3.47500	1903
3.48333	2344
3.49167	2747
3.50000	3113
3.50833	3445
3.51667	3746
3.52500	4017
3.53333	4256
3.54167	4469
3.55000	4659
3.55833	4824
3.56667	4970
3.57500	5097
3.58333	5208
3.59167	5305
3.60000	5388
3.60833	5460
3.61667	5521
3.62500	5580
3.63333	5635
3.64167	5689
3.65000	5745
3.65833	5803
3.66667	5867
3.67500	5938
3.68333	6018
3.69167	6112
3.70000	6225
3.70833	6358
3.71667	6517
3.72500	6708
3.73333	6935
3.74167	7203
3.75000	7516
3.75833	7880
3.76667	8298
3.77500	8777
3.78333	9323
3.79167	9940
3.80000	10634
3.80833	11406
3.81667	12263
3.82500	13207
3.83333	14241
3.84167	15365
3.85000	16577
3.85833	17874
3.86667	19255
3.87500	20716
3.88333	22249
3.89167	23850
3.90000	25511
3.90833	27224
3.91667	28981
3.92500	30774
3.93333	32595
3.94167	34438
3.95000	36290
3.95833	38141
3.96667	39988
3.97500	41827
3.98333	43652
3.99167	45457
4.00000	47240
4.00833	48996
4.01667	50725
4.02500	52428
4.03333	54106
4.04167	55761
4.05000	57393
4.05833	59009
4.06667	60610
4.07500	62202
4.08333	63785
4.09167	65363
4.10000	66940
4.10833	68520
4.11667	70108
4.12500	71704
4.13333	73309
4.14167	74924
4.15000	76551
4.15833	78188
4.16667	79835
4.17500	81493
4.18333	83163
4.19167	84838
4.20000	86515
4.20833	88191
4.21667	89862
4.22500	91523
4.23333	93165
4.24167	94784
4.25000	96373
4.25833	97925
4.26667	99432
4.27500	100887
4.28333	102282
4.29167	103612
4.30000	104870
4.30833	106049
4.31667	107142
4.32500	108148
4.33333	109061
4.34167	109878
4.35000	110596
4.35833	111213
4.36667	111732
4.37500	112151
4.38333	112477
4.39167	112709
4.40000	112846
4.40833	112895
4.41667	112859
4.42500	112741
4.43333	112546
4.44167	112282
4.45000	111953
4.45833	111564
4.46667	111117
4.47500	110618
4.48333	110074
4.49167	109486
4.50000	108857
4.50833	108195
4.51667	107500
4.52500	106776
4.53333	106022
4.54167	105243
4.55000	104439
4.55833	103616
4.56667	102772
4.57500	101908
4.58333	101022
4.59167	100115
4.60000	99191
4.60833	98246
4.61667	97280
4.62500	96295
4.63333	95290
4.64167	94266
4.65000	93222
4.65833	92162
4.66667	91087
4.67500	89993
4.68333	88879
4.69167	87748
4.70000	86600
4.70833	85437
4.71667	84260
4.72500	83072
4.73333	81875
4.74167	80670
4.75000	79457
4.75833	78240
4.76667	77020
4.77500	75798
4.78333	74576
4.79167	73355
4.80000	72138
4.80833	70927
4.81667	69721
4.82500	68523
4.83333	67334
4.84167	66156
4.85000	64993
4.85833	63843
4.86667	62708
4.87500	61589
4.88333	60490
4.89167	59409
4.90000	58347
4.90833	57307
4.91667	56287
4.92500	55291
4.93333	54318
4.94167	53367
4.95000	52441
4.95833	51541
4.96667	50667
4.97500	49820
4.98333	48999
4.99167	48206
5.00000	47441
5.00833	46701
5.01667	45989
5.02500	45307
5.03333	44651
5.04167	44022
5.05000	43422
5.05833	42847
5.06667	42299
5.07500	41778
5.08333	41279
5.09167	40805
5.10000	40356
5.10833	39930
5.11667	39525
5.12500	39141
5.13333	38776
5.14167	38428
5.15000	38096
5.15833	37779
5.16667	37476
5.17500	37187
5.18333	36914
5.19167	36651
5.20000	36396
5.20833	36150
5.21667	35914
5.22500	35688
5.23333	35469
5.24167	35257
5.25000	35051
5.25833	34851
5.26667	34658
5.27500	34471
5.28333	34289
5.29167	34112
5.30000	33945
5.30833	33788
5.31667	33638
5.32500	33497
5.33333	33365
5.34167	33240
5.35000	33124
5.35833	33016
5.36667	32918
5.37500	32830
5.38333	32755
5.39167	32691
5.40000	32639
5.40833	32599
5.41667	32572
5.42500	32558
5.43333	32556
5.44167	32569
5.45000	32593
5.45833	32630
5.46667	32682
5.47500	32748
5.48333	32827
5.49167	32919
5.50000	33025
5.50833	33144
5.51667	33275
5.52500	33417
5.53333	33574
5.54167	33744
5.55000	33928
5.55833	34125
5.56667	34332
5.57500	34549
5.58333	34777
5.59167	35017
5.60000	35269
5.60833	35532
5.61667	35807
5.62500	36091
5.63333	36385
5.64167	36689
5.65000	37004
5.65833	37331
5.66667	37668
5.67500	38016
5.68333	38376
5.69167	38749
5.70000	39134
5.70833	39531
5.71667	39941
5.72500	40364
5.73333	40799
5.74167	41249
5.75000	41714
5.75833	42193
5.76667	42687
5.77500	43197
5.78333	43723
5.79167	44266
5.80000	44828
5.80833	45405
5.81667	46001
5.82500	46616
5.83333	47249
5.84167	47902
5.85000	48574
5.85833	49264
5.86667	49971
5.87500	50698
5.88333	51444
5.89167	52210
5.90000	52994
5.90833	53795
5.91667	54615
5.92500	55452
5.93333	56306
5.94167	57177
5.95000	58062
5.95833	58962
5.96667	59878
5.97500	60806
5.98333	61750
5.99167	62707
6.00000	63675
6.00833	64654
6.01667	65641
6.02500	66638
6.03333	67644
6.04167	68659
6.05000	69680
6.05833	70706
6.06667	71738
6.07500	72775
6.08333	73816
6.09167	74861
6.10000	75906
6.10833	76953
6.11667	78003
6.12500	79053
6.13333	80103
6.14167	81150
6.15000	82197
6.15833	83243
6.16667	84289
6.17500	85333
6.18333	86375
6.19167	87414
6.20000	88447
6.20833	89478
6.21667	90510
6.22500	91537
6.23333	92562
6.24167	93588
6.25000	94612
6.25833	95636
6.26667	96659
6.27500	97681
6.28333	98701
6.29167	99720
6.30000	100740
6.30833	101760
6.31667	102782
6.32500	103805
6.33333	104826
6.34167	105849
6.35000	106872
6.35833	107895
6.36667	108919
6.37500	109939
6.38333	110960
6.39167	111979
6.40000	112994
6.40833	114004
6.41667	115010
6.42500	116010
6.43333	117002
6.44167	117984
6.45000	118957
6.45833	119919
6.46667	120868
6.47500	121800
6.48333	122714
6.49167	123614
6.50000	124492
6.50833	125347
6.51667	126179
6.52500	126988
6.53333	127773
6.54167	128532
6.55000	129264
6.55833	129967
6.56667	130641
6.57500	131287
6.58333	131905
6.59167	132494
6.60000	133053
6.60833	133584
6.61667	134089
6.62500	134568
6.63333	135024
6.64167	135459
6.65000	135871
6.65833	136264
6.66667	136642
6.67500	137006
6.68333	137362
6.69167	137705
6.70000	138041
6.70833	138373
6.71667	138701
6.72500	139033
6.73333	139368
6.74167	139708
6.75000	140058
6.75833	140418
6.76667	140790
6.77500	141177
6.78333	141579
6.79167	141999
6.80000	142439
6.80833	142900
6.81667	143384
6.82500	143890
6.83333	144423
6.84167	144981
6.85000	145564
6.85833	146175
6.86667	146815
6.87500	147484
6.88333	148184
6.89167	148914
6.90000	149671
6.90833	150459
6.91667	151275
6.92500	152121
6.93333	153000
6.94167	153907
6.95000	154843
6.95833	155808
6.96667	156803
6.97500	157826
6.98333	158880
6.99167	159961
7.00000	161069
7.00833	162204
7.01667	163366
7.02500	164553
7.03333	165770
7.04167	167014
7.05000	168287
7.05833	169587
7.06667	170913
7.07500	172270
7.08333	173655
7.09167	175068
7.10000	176509
7.10833	177979
7.11667	179477
7.12500	181006
7.13333	182565
7.14167	184156
7.15000	185781
7.15833	187438
7.16667	189129
7.17500	190853
7.18333	192609
7.19167	194395
7.20000	196211
7.20833	198060
7.21667	199941
7.22500	201849
7.23333	203785
7.24167	205746
7.25000	207726
7.25833	209723
7.26667	211737
7.27500	213764
7.28333	215799
7.29167	217836
7.30000	219875
7.30833	221909
7.31667	223932
7.32500	225939
7.33333	227924
7.34167	229883
7.35000	231813
7.35833	233708
7.36667	235563
7.37500	237373
7.38333	239133
7.39167	240838
7.40000	242485
7.40833	244069
7.41667	245587
7.42500	247034
7.43333	248404
7.44167	249695
7.45000	250904
7.45833	252026
7.46667	253059
7.47500	253997
7.48333	254839
7.49167	255579
7.50000	256213
7.50833	256734
7.51667	257138
7.52500	257423
7.53333	257585
7.54167	257624
7.55000	257541
7.55833	257328
7.56667	256983
7.57500	256511
7.58333	255915
7.59167	255199
7.60000	254367
7.60833	253429
7.61667	252398
7.62500	251290
7.63333	250120
7.64167	248910
7.65000	247679
7.65833	246446
7.66667	245237
7.67500	244077
7.68333	242994
7.69167	242012
7.70000	241162
7.70833	240473
7.71667	239977
7.72500	239702
7.73333	239683
7.74167	239952
7.75000	240545
7.75833	241497
7.76667	242849
7.77500	244635
7.78333	246889
7.79167	249652
7.80000	252958
7.80833	256837
7.81667	261315
7.82500	266412
7.83333	272140
7.84167	278510
7.85000	285521
7.85833	293166
7.86667	301428
7.87500	310283
7.88333	319698
7.89167	329634
7.90000	340053
7.90833	350905
7.91667	362136
7.92500	373694
7.93333	385515
7.94167	397530
7.95000	409675
7.95833	421889
7.96667	434104
7.97500	446259
7.98333	458290
7.99167	470135
8.00000	481727
8.00833	493014
8.01667	503953
8.02500	514497
8.03333	524603
8.04167	534225
8.05000	543328
8.05833	551881
8.06667	559846
8.07500	567204
8.08333	573935
8.09167	580017
8.10000	585433
8.10833	590168
8.11667	594218
8.12500	597573
8.13333	600232
8.14167	602195
8.15000	603461
8.15833	604038
8.16667	603926
8.17500	603139
8.18333	601691
8.19167	599594
8.20000	596860
8.20833	593513
8.21667	589576
8.22500	585068
8.23333	580004
8.24167	574407
8.25000	568299
8.25833	561705
8.26667	554648
8.27500	547151
8.28333	539234
8.29167	530916
8.30000	522217
8.30833	513158
8.31667	503761
8.32500	494040
8.33333	484014
8.34167	473699
8.35000	463117
8.35833	452281
8.36667	441210
8.37500	429925
8.38333	418452
8.39167	406818
8.40000	395046
8.40833	383163
8.41667	371198
8.42500	359184
8.43333	347153
8.44167	335142
8.45000	323186
8.45833	311312
8.46667	299552
8.47500	287941
8.48333	276512
8.49167	265300
8.50000	254331
8.50833	243634
8.51667	233236
8.52500	223161
8.53333	213430
8.54167	204064
8.55000	195083
8.55833	186503
8.56667	178337
8.57500	170598
8.58333	163299
8.59167	156454
8.60000	150075
8.60833	144169
8.61667	138746
8.62500	133815
8.63333	129380
8.64167	125449
8.65000	122032
8.65833	119136
8.66667	116767
8.67500	114932
8.68333	113632
8.69167	112871
8.70000	112653
8.70833	112980
8.71667	113851
8.72500	115265
8.73333	117214
8.74167	119691
8.75000	122690
8.75833	126196
8.76667	130192
8.77500	134663
8.78333	139584
8.79167	144935
8.80000	150690
8.80833	156823
8.81667	163305
8.82500	170106
8.83333	177194
8.84167	184537
8.85000	192107
8.85833	199875
8.86667	207813
8.87500	215893
8.88333	224090
8.89167	232381
8.90000	240751
8.90833	249181
8.91667	257660
8.92500	266183
8.93333	274744
8.94167	283346
8.95000	291995
8.95833	300700
8.96667	309478
8.97500	318344
8.98333	327321
8.99167	336429
9.00000	345691
9.00833	355140
9.01667	364804
9.02500	374716
9.03333	384912
9.04167	395418
9.05000	406264
9.05833	417477
9.06667	429086
9.07500	441116
9.08333	453586
9.09167	466518
9.10000	479920
9.10833	493805
9.11667	508175
9.12500	523028
9.13333	538358
9.14167	554153
9.15000	570395
9.15833	587061
9.16667	604114
9.17500	621523
9.18333	639260
9.19167	657281
9.20000	675535
9.20833	693969
9.21667	712524
9.22500	731142
9.23333	749763
9.24167	768327
9.25000	786767
9.25833	805023
9.26667	823032
9.27500	840730
9.28333	858048
9.29167	874924
9.30000	891305
9.30833	907133
9.31667	922361
9.32500	936943
9.33333	950817
9.34167	963941
9.35000	976279
9.35833	987796
9.36667	998452
9.37500	1008239
9.38333	1017135
9.39167	1025122
9.40000	1032179
9.40833	1038304
9.41667	1043485
9.42500	1047730
9.43333	1051052
9.44167	1053458
9.45000	1054954
9.45833	1055557
9.46667	1055297
9.47500	1054190
9.48333	1052269
9.49167	1049560
9.50000	1046092
9.50833	1041905
9.51667	1037026
9.52500	1031495
9.53333	1025350
9.54167	1018629
9.55000	1011390
9.55833	1003650
9.56667	995453
9.57500	986839
9.58333	977853
9.59167	968528
9.60000	958901
9.60833	949020
9.61667	938922
9.62500	928640
9.63333	918200
9.64167	907633
9.65000	896979
9.65833	886267
9.66667	875523
9.67500	864756
9.68333	853992
9.69167	843254
9.70000	832562
9.70833	821930
9.71667	811378
9.72500	800910
9.73333	790530
9.74167	780253
9.75000	770082
9.75833	760024
9.76667	750087
9.77500	740279
9.78333	730590
9.79167	721025
9.80000	711585
9.80833	702263
9.81667	693057
9.82500	683967
9.83333	674994
9.84167	666130
9.85000	657368
9.85833	648708
9.86667	640141
9.87500	631661
9.88333	623268
9.89167	614953
9.90000	606707
9.90833	598527
9.91667	590405
9.92500	582342
9.93333	574329
9.94167	566365
9.95000	558443
9.95833	550558
9.96667	542709
9.97500	534896
9.98333	527111
9.99167	519352
10.00000	511620
10.00833	503914
10.01667	496229
10.02500	488568
10.03333	480925
10.04167	473305
10.05000	465705
10.05833	458124
10.06667	450561
10.07500	443020
10.08333	435502
10.09167	428006
10.10000	420531
10.10833	413084
10.11667	405665
10.12500	398273
10.13333	390909
10.14167	383578
10.15000	376284
10.15833	369030
10.16667	361821
10.17500	354657
10.18333	347541
10.19167	340473
10.20000	333455
10.20833	326494
10.21667	319595
10.22500	312758
10.23333	305986
10.24167	299282
10.25000	292646
10.25833	286080
10.26667	279589
10.27500	273180
10.28333	266852
10.29167	260606
10.30000	254442
10.30833	248359
10.31667	242364
10.32500	236461
10.33333	230647
10.34167	224924
10.35000	219293
10.35833	213757
10.36667	208315
10.37500	202969
10.38333	197725
10.39167	192579
10.40000	187528
10.40833	182575
10.41667	177722
10.42500	172968
10.43333	168313
10.44167	163760
10.45000	159306
10.45833	154946
10.46667	150685
10.47500	146519
10.48333	142448
10.49167	138475
10.50000	134596
10.50833	130810
10.51667	127116
10.52500	123514
10.53333	120000
10.54167	116576
10.55000	113241
10.55833	109995
10.56667	106833
10.57500	103754
10.58333	100756
10.59167	97838
10.60000	95001
10.60833	92241
10.61667	89558
10.62500	86949
10.63333	84412
10.64167	81945
10.65000	79547
10.65833	77220
10.66667	74959
10.67500	72763
10.68333	70630
10.69167	68559
10.70000	66549
10.70833	64596
10.71667	62701
10.72500	60863
10.73333	59079
10.74167	57350
10.75000	55670
10.75833	54038
10.76667	52457
10.77500	50925
10.78333	49438
10.79167	47994
10.80000	46594
10.80833	45236
10.81667	43920
10.82500	42644
10.83333	41407
10.84167	40207
10.85000	39047
10.85833	37920
10.86667	36827
10.87500	35766
10.88333	34738
10.89167	33740
10.90000	32773
10.90833	31835
10.91667	30923
10.92500	30040
10.93333	29183
10.94167	28353
10.95000	27546
10.95833	26764
10.96667	26007
10.97500	25274
10.98333	24563
10.99167	23874
11.00000	23206

[LC Chromatogram(Detector B-Ch1)]
Interval(msec)	500
# of Points	1321
Start Time(min)	0.000
End Time(min)	11.000
Intensity Units	mV
Intensity Multiplier	0.001
Ex. Wavelength(nm)	482
Em. Wavelength(nm)	520
R.Time (min)	Intensity
0.00000	-5939
0.00833	-5939
0.01667	-54
0.02500	-168
0.03333	-119
0.04167	-127
0.05000	-240
0.05833	-351
0.06667	-454
0.07500	-544
0.08333	-621
0.09167	-691
0.10000	-762
0.10833	-840
0.11667	-925
0.12500	-1014
0.13333	-1107
0.14167	-1196
0.15000	-1282
0.15833	-1370
0.16667	-1461
0.17500	-1553
0.18333	-1652
0.19167	-1759
0.20000	-1868
0.20833	-1980
0.21667	-2089
0.22500	-2195
0.23333	-2300
0.24167	-2399
0.25000	-2492
0.25833	-2575
0.26667	-2649
0.27500	-2725
0.28333	-2800
0.29167	-2871
0.30000	-2942
0.30833	-3020
0.31667	-3099
0.32500	-3181
0.33333	-3266
0.34167	-3351
0.35000	-3434
0.35833	-3520
0.36667	-3605
0.37500	-3691
0.38333	-3780
0.39167	-3865
0.40000	-3950
0.40833	-4039
0.41667	-4128
0.42500	-4219
0.43333	-4312
0.44167	-4400
0.45000	-4486
0.45833	-4576
0.46667	-4667
0.47500	-4754
0.48333	-4837
0.49167	-4922
0.50000	-5012
0.50833	-5103
0.51667	-5190
0.52500	-5275
0.53333	-5360
0.54167	-5446
0.55000	-5535
0.55833	-5621
0.56667	-5703
0.57500	-5787
0.58333	-5872
0.59167	-5955
0.60000	-6034
0.60833	-6115
0.61667	-6192
0.62500	-6266
0.63333	-6341
0.64167	-6417
0.65000	-6491
0.65833	-6566
0.66667	-6637
0.67500	-6711
0.68333	-6785
0.69167	-6857
0.70000	-6930
0.70833	-7002
0.71667	-7075
0.72500	-7143
0.73333	-7214
0.74167	-7287
0.75000	-7359
0.75833	-7428
0.76667	-7496
0.77500	-7566
0.78333	-7635
0.79167	-7702
0.80000	-7771
0.80833	-7841
0.81667	-7909
0.82500	-7975
0.83333	-8046
0.84167	-8117
0.85000	-8186
0.85833	-8247
0.86667	-8310
0.87500	-8374
0.88333	-8437
0.89167	-8500
0.90000	-8567
0.90833	-8632
0.91667	-8695
0.92500	-8756
0.93333	-8817
0.94167	-8884
0.95000	-8948
0.95833	-9009
0.96667	-9071
0.97500	-9132
0.98333	-9192
0.99167	-9254
1.00000	-9316
1.00833	-9377
1.01667	-9439
1.02500	-9499
1.03333	-9562
1.04167	-9623
1.05000	-9682
1.05833	-9744
1.06667	-9803
1.07500	-9863
1.08333	-9922
1.09167	-9983
1.10000	-10046
1.10833	-10105
1.11667	-10161
1.12500	-10214
1.13333	-10270
1.14167	-10324
1.15000	-10375
1.15833	-10426
1.16667	-10480
1.17500	-10535
1.18333	-10589
1.19167	-10642
1.20000	-10694
1.20833	-10748
1.21667	-10803
1.22500	-10857
1.23333	-10911
1.24167	-10964
1.25000	-11015
1.25833	-11064
1.26667	-11116
1.27500	-11169
1.28333	-11223
1.29167	-11274
1.30000	-11322
1.30833	-11369
1.31667	-11418
1.32500	-11467
1.33333	-11517
1.34167	-11566
1.35000	-11613
1.35833	-11658
1.36667	-11704
1.37500	-11755
1.38333	-11805
1.39167	-11851
1.40000	-11895
1.40833	-11940
1.41667	-11988
1.42500	-12034
1.43333	-12078
1.44167	-12123
1.45000	-12167
1.45833	-12212
1.46667	-12255
1.47500	-12299
1.48333	-12342
1.49167	-12387
1.50000	-12433
1.50833	-12476
1.51667	-12518
1.52500	-12561
1.53333	-12605
1.54167	-12647
1.55000	-12690
1.55833	-12732
1.56667	-12773
1.57500	-12816
1.58333	-12857
1.59167	-12897
1.60000	-12934
1.60833	-12972
1.61667	-13011
1.62500	-13049
1.63333	-13089
1.64167	-13128
1.65000	-13166
1.65833	-13202
1.66667	-13243
1.67500	-13291
1.68333	-13332
1.69167	-13369
1.70000	-13405
1.70833	-13445
1.71667	-13485
1.72500	-13526
1.73333	-13565
1.74167	-13603
1.75000	-13641
1.75833	-13681
1.76667	-13724
1.77500	-13765
1.78333	-13807
1.79167	-13845
1.80000	-13881
1.80833	-13918
1.81667	-13957
1.82500	-13994
1.83333	-14030
1.84167	-14067
1.85000	-14106
1.85833	-14145
1.86667	-14183
1.87500	-14221
1.88333	-14254
1.89167	-14286
1.90000	-14319
1.90833	-14352
1.91667	-14383
1.92500	-14416
1.93333	-14448
1.94167	-14483
1.95000	-14515
1.95833	-14546
1.96667	-14578
1.97500	-14611
1.98333	-14643
1.99167	-14677
2.00000	-14714
2.00833	-14748
2.01667	-14778
2.02500	-14812
2.03333	-14847
2.04167	-14881
2.05000	-14913
2.05833	-14945
2.06667	-14979
2.07500	-15013
2.08333	-15049
2.09167	-15086
2.10000	-15124
2.10833	-15159
2.11667	-15191
2.12500	-15222
2.13333	-15254
2.14167	-15288
2.15000	-15319
2.15833	-15354
2.16667	-15389
2.17500	-15424
2.18333	-15456
2.19167	-15488
2.20000	-15521
2.20833	-15553
2.21667	-15581
2.22500	-15613
2.23333	-15647
2.24167	-15681
2.25000	-15716
2.25833	-15749
2.26667	-15782
2.27500	-15816
2.28333	-15847
2.29167	-15877
2.30000	-15905
2.30833	-15933
2.31667	-15966
2.32500	-16002
2.33333	-16033
2.34167	-16060
2.35000	-16088
2.35833	-16119
2.36667	-16152
2.37500	-16183
2.38333	-16213
2.39167	-16243
2.40000	-16272
2.40833	-16300
2.41667	-16329
2.42500	-16356
2.43333	-16384
2.44167	-16413
2.45000	-16441
2.45833	-16467
2.46667	-16496
2.47500	-16524
2.48333	-16552
2.49167	-16582
2.50000	-16613
2.50833	-16643
2.51667	-16669
2.52500	-16699
2.53333	-16729
2.54167	-16756
2.55000	-16783
2.55833	-16808
2.56667	-16832
2.57500	-16856
2.58333	-16881
2.59167	-16905
2.60000	-16930
2.60833	-16956
2.61667	-16983
2.62500	-17009
2.63333	-17036
2.64167	-17063
2.65000	-17088
2.65833	-17112
2.66667	-17137
2.67500	-17159
2.68333	-17182
2.69167	-17210
2.70000	-17235
2.70833	-17259
2.71667	-17286
2.72500	-17310
2.73333	-17330
2.74167	-17351
2.75000	-17377
2.75833	-17405
2.76667	-17433
2.77500	-17459
2.78333	-17485
2.79167	-17512
2.80000	-17536
2.80833	-17562
2.81667	-17587
2.82500	-17610
2.83333	-17634
2.84167	-17659
2.85000	-17687
2.85833	-17715
2.86667	-17743
2.87500	-17769
2.88333	-17794
2.89167	-17821
2.90000	-17847
2.90833	-17870
2.91667	-17891
2.92500	-17915
2.93333	-17938
2.94167	-17961
2.95000	-17987
2.95833	-18015
2.96667	-18041
2.97500	-18065
2.98333	-18089
2.99167	-18113
3.00000	-18139
3.00833	-18165
3.01667	-18191
3.02500	-18215
3.03333	-18238
3.04167	-18263
3.05000	-18287
3.05833	-18310
3.06667	-18332
3.07500	-18351
3.08333	-18372
3.09167	-18395
3.10000	-18419
3.10833	-18444
3.11667	-18468
3.12500	-18493
3.13333	-18517
3.14167	-18540
3.15000	-18562
3.15833	-18584
3.16667	-18607
3.17500	-18632
3.18333	-18655
3.19167	-18679
3.20000	-18702
3.20833	-18726
3.21667	-18748
3.22500	-18772
3.23333	-18794
3.24167	-18814
3.25000	-18833
3.25833	-18852
3.26667	-18875
3.27500	-18898
3.28333	-18917
3.29167	-18938
3.30000	-18958
3.30833	-18977
3.31667	-18997
3.32500	-19016
3.33333	-19036
3.34167	-19057
3.35000	-19077
3.35833	-19095
3.36667	-19110
3.37500	-19124
3.38333	-19139
3.39167	-19153
3.40000	-19165
3.40833	-19175
3.41667	-19179
3.42500	-19180
3.43333	-19179
3.44167	-19173
3.45000	-19157
3.45833	-19131
3.46667	-19093
3.47500	-19045
3.48333	-18978
3.49167	-18890
3.50000	-18778
3.50833	-18641
3.51667	-18475
3.52500	-18276
3.53333	-18035
3.54167	-17750
3.55000	-17421
3.55833	-17041
3.56667	-16600
3.57500	-16096
3.58333	-15527
3.59167	-14890
3.60000	-14179
3.60833	-13392
3.61667	-12534
3.62500	-11605
3.63333	-10607
3.64167	-9539
3.65000	-8403
3.65833	-7201
3.66667	-5943
3.67500	-4638
3.68333	-3289
3.69167	-1902
3.70000	-486
3.70833	959
3.71667	2416
3.72500	3873
3.73333	5333
3.74167	6786
3.75000	8224
3.75833	9642
3.76667	11040
3.77500	12414
3.78333	13754
3.79167	15059
3.80000	16323
3.80833	17540
3.81667	18716
3.82500	19844
3.83333	20931
3.84167	21982
3.85000	22992
3.85833	23961
3.86667	24889
3.87500	25774
3.88333	26624
3.89167	27441
3.90000	28228
3.90833	28981
3.91667	29709
3.92500	30411
3.93333	31083
3.94167	31729
3.95000	32355
3.95833	32966
3.96667	33559
3.97500	34135
3.98333	34695
3.99167	35253
4.00000	35802
4.00833	36338
4.01667	36872
4.02500	37403
4.03333	37929
4.04167	38464
4.05000	39004
4.05833	39553
4.06667	40108
4.07500	40671
4.08333	41250
4.09167	41845
4.10000	42456
4.10833	43077
4.11667	43727
4.12500	44402
4.13333	45092
4.14167	45807
4.15000	46549
4.15833	47336
4.16667	48162
4.17500	49018
4.18333	49913
4.19167	50857
4.20000	51849
4.20833	52891
4.21667	53988
4.22500	55151
4.23333	56378
4.24167	57678
4.25000	59060
4.25833	60533
4.26667	62101
4.27500	63772
4.28333	65556
4.29167	67467
4.30000	69513
4.30833	71700
4.31667	74052
4.32500	76584
4.33333	79310
4.34167	82243
4.35000	85403
4.35833	88811
4.36667	92474
4.37500	96414
4.38333	100647
4.39167	105196
4.40000	110077
4.40833	115301
4.41667	120879
4.42500	126821
4.43333	133145
4.44167	139867
4.45000	146993
4.45833	154509
4.46667	162403
4.47500	170694
4.48333	179382
4.49167	188444
4.50000	197882
4.50833	207700
4.51667	217863
4.52500	228335
4.53333	239102
4.54167	250124
4.55000	261377
4.55833	272825
4.56667	284436
4.57500	296138
4.58333	307851
4.59167	319549
4.60000	331168
4.60833	342629
4.61667	353878
4.62500	364852
4.63333	375488
4.64167	385725
4.65000	395522
4.65833	404827
4.66667	413603
4.67500	421807
4.68333	429425
4.69167	436418
4.70000	442732
4.70833	448391
4.71667	453417
4.72500	457789
4.73333	461497
4.74167	464542
4.75000	466931
4.75833	468707
4.76667	469877
4.77500	470438
4.78333	470448
4.79167	469896
4.80000	468810
4.80833	467226
4.81667	465191
4.82500	462741
4.83333	459905
4.84167	456681
4.85000	453101
4.85833	449199
4.86667	444991
4.87500	440521
4.88333	435828
4.89167	430914
4.90000	425799
4.90833	420522
4.91667	415092
4.92500	409520
4.93333	403844
4.94167	398074
4.95000	392208
4.95833	386292
4.96667	380329
4.97500	374326
4.98333	368300
4.99167	362280
5.00000	356257
5.00833	350248
5.01667	344239
5.02500	338248
5.03333	332288
5.04167	326357
5.05000	320486
5.05833	314674
5.06667	308908
5.07500	303210
5.08333	297579
5.09167	291997
5.10000	286491
5.10833	281058
5.11667	275698
5.12500	270428
5.13333	265247
5.14167	260151
5.15000	255137
5.15833	250208
5.16667	245350
5.17500	240573
5.18333	235877
5.19167	231261
5.20000	226735
5.20833	222283
5.21667	217904
5.22500	213603
5.23333	209385
5.24167	205239
5.25000	201171
5.25833	197189
5.26667	193294
5.27500	189463
5.28333	185698
5.29167	182015
5.30000	178416
5.30833	174895
5.31667	171449
5.32500	168078
5.33333	164780
5.34167	161546
5.35000	158373
5.35833	155274
5.36667	152246
5.37500	149288
5.38333	146390
5.39167	143556
5.40000	140790
5.40833	138096
5.41667	135461
5.42500	132880
5.43333	130357
5.44167	127899
5.45000	125495
5.45833	123150
5.46667	120861
5.47500	118626
5.48333	116445
5.49167	114311
5.50000	112217
5.50833	110178
5.51667	108189
5.52500	106247
5.53333	104344
5.54167	102478
5.55000	100654
5.55833	98872
5.56667	97123
5.57500	95408
5.58333	93721
5.59167	92079
5.60000	90485
5.60833	88918
5.61667	87378
5.62500	85884
5.63333	84428
5.64167	83010
5.65000	81626
5.65833	80267
5.66667	78946
5.67500	77659
5.68333	76398
5.69167	75167
5.70000	73968
5.70833	72806
5.71667	71669
5.72500	70563
5.73333	69486
5.74167	68445
5.75000	67430
5.75833	66441
5.76667	65477
5.77500	64540
5.78333	63631
5.79167	62735
5.80000	61867
5.80833	61025
5.81667	60210
5.82500	59407
5.83333	58618
5.84167	57849
5.85000	57101
5.85833	56378
5.86667	55676
5.87500	54989
5.88333	54308
5.89167	53644
5.90000	52995
5.90833	52366
5.91667	51745
5.92500	51138
5.93333	50536
5.94167	49947
5.95000	49376
5.95833	48824
5.96667	48281
5.97500	47744
5.98333	47208
5.99167	46676
6.00000	46158
6.00833	45650
6.01667	45145
6.02500	44649
6.03333	44160
6.04167	43674
6.05000	43195
6.05833	42724
6.06667	42260
6.07500	41797
6.08333	41342
6.09167	40891
6.10000	40437
6.10833	39983
6.11667	39540
6.12500	39103
6.13333	38671
6.14167	38244
6.15000	37817
6.15833	37390
6.16667	36969
6.17500	36550
6.18333	36139
6.19167	35729
6.20000	35320
6.20833	34914
6.21667	34515
6.22500	34118
6.23333	33725
6.24167	33334
6.25000	32945
6.25833	32558
6.26667	32174
6.27500	31799
6.28333	31432
6.29167	31071
6.30000	30715
6.30833	30355
6.31667	30000
6.32500	29649
6.33333	29297
6.34167	28948
6.35000	28600
6.35833	28261
6.36667	27930
6.37500	27603
6.38333	27276
6.39167	26953
6.40000	26639
6.40833	26331
6.41667	26024
6.42500	25721
6.43333	25422
6.44167	25127
6.45000	24844
6.45833	24568
6.46667	24292
6.47500	24023
6.48333	23763
6.49167	23513
6.50000	23262
6.50833	23014
6.51667	22776
6.52500	22549
6.53333	22327
6.54167	22104
6.55000	21888
6.55833	21687
6.56667	21498
6.57500	21317
6.58333	21135
6.59167	20965
6.60000	20804
6.60833	20648
6.61667	20505
6.62500	20375
6.63333	20256
6.64167	20138
6.65000	20029
6.65833	19937
6.66667	19858
6.67500	19787
6.68333	19734
6.69167	19692
6.70000	19660
6.70833	19636
6.71667	19626
6.72500	19636
6.73333	19661
6.74167	19701
6.75000	19757
6.75833	19823
6.76667	19911
6.77500	20019
6.78333	20149
6.79167	20297
6.80000	20467
6.80833	20662
6.81667	20880
6.82500	21122
6.83333	21390
6.84167	21684
6.85000	22009
6.85833	22365
6.86667	22745
6.87500	23163
6.88333	23620
6.89167	24111
6.90000	24640
6.90833	25214
6.91667	25831
6.92500	26495
6.93333	27211
6.94167	27981
6.95000	28813
6.95833	29704
6.96667	30663
6.97500	31690
6.98333	32796
6.99167	33983
7.00000	35260
7.00833	36631
7.01667	38110
7.02500	39692
7.03333	41395
7.04167	43228
7.05000	45196
7.05833	47309
7.06667	49583
7.07500	52035
7.08333	54675
7.09167	57532
7.10000	60616
7.10833	63936
7.11667	67519
7.12500	71384
7.13333	75562
7.14167	80088
7.15000	84976
7.15833	90248
7.16667	95945
7.17500	102094
7.18333	108731
7.19167	115887
7.20000	123609
7.20833	131926
7.21667	140866
7.22500	150492
7.23333	160851
7.24167	171990
7.25000	183930
7.25833	196710
7.26667	210385
7.27500	224987
7.28333	240557
7.29167	257143
7.30000	274756
7.30833	293462
7.31667	313268
7.32500	334196
7.33333	356281
7.34167	379558
7.35000	404042
7.35833	429752
7.36667	456721
7.37500	484942
7.38333	514407
7.39167	545081
7.40000	576918
7.40833	609931
7.41667	644090
7.42500	679342
7.43333	715667
7.44167	752989
7.45000	791231
7.45833	830331
7.46667	870256
7.47500	910917
7.48333	952268
7.49167	994257
7.50000	1036778
7.50833	1079779
7.51667	1123137
7.52500	1166755
7.53333	1210549
7.54167	1254411
7.55000	1298236
7.55833	1341895
7.56667	1385270
7.57500	1428249
7.58333	1470664
7.59167	1512469
7.60000	1553604
7.60833	1593922
7.61667	1633276
7.62500	1671603
7.63333	1708818
7.64167	1744842
7.65000	1779611
7.65833	1813046
7.66667	1845125
7.67500	1875745
7.68333	1904822
7.69167	1932366
7.70000	1958370
7.70833	1982728
7.71667	2005394
7.72500	2026374
7.73333	2045645
7.74167	2063223
7.75000	2079123
7.75833	2093401
7.76667	2106043
7.77500	2116979
7.78333	2126241
7.79167	2133911
7.80000	2139981
7.80833	2144468
7.81667	2147413
7.82500	2148822
7.83333	2148759
7.84167	2147262
7.85000	2144325
7.85833	2140010
7.86667	2134322
7.87500	2127370
7.88333	2119215
7.89167	2109907
7.90000	2099414
7.90833	2087804
7.91667	2075179
7.92500	2061578
7.93333	2047033
7.94167	2031523
7.95000	2015135
7.95833	1997954
7.96667	1980052
7.97500	1961363
7.98333	1941946
7.99167	1921862
8.00000	1901124
8.00833	1879793
8.01667	1857849
8.02500	1835365
8.03333	1812368
8.04167	1788921
8.05000	1765045
8.05833	1740773
8.06667	1716179
8.07500	1691304
8.08333	1666179
8.09167	1640853
8.10000	1615335
8.10833	1589690
8.11667	1563962
8.12500	1538232
8.13333	1512518
8.14167	1486873
8.15000	1461355
8.15833	1436028
8.16667	1410924
8.17500	1386080
8.18333	1361581
8.19167	1337389
8.20000	1313557
8.20833	1290087
8.21667	1267039
8.22500	1244440
8.23333	1222311
8.24167	1200612
8.25000	1179389
8.25833	1158638
8.26667	1138379
8.27500	1118623
8.28333	1099355
8.29167	1080632
8.30000	1062403
8.30833	1044637
8.31667	1027311
8.32500	1010429
8.33333	994013
8.34167	978056
8.35000	962484
8.35833	947311
8.36667	932538
8.37500	918158
8.38333	904174
8.39167	890549
8.40000	877294
8.40833	864388
8.41667	851788
8.42500	839472
8.43333	827435
8.44167	815656
8.45000	804153
8.45833	792918
8.46667	781916
8.47500	771097
8.48333	760469
8.49167	750044
8.50000	739798
8.50833	729698
8.51667	719770
8.52500	709981
8.53333	700302
8.54167	690706
8.55000	681198
8.55833	671751
8.56667	662386
8.57500	653121
8.58333	643939
8.59167	634819
8.60000	625735
8.60833	616698
8.61667	607733
8.62500	598840
8.63333	590032
8.64167	581314
8.65000	572672
8.65833	564095
8.66667	555571
8.67500	547147
8.68333	538828
8.69167	530577
8.70000	522397
8.70833	514328
8.71667	506378
8.72500	498528
8.73333	490774
8.74167	483112
8.75000	475570
8.75833	468146
8.76667	460829
8.77500	453627
8.78333	446573
8.79167	439662
8.80000	432897
8.80833	426273
8.81667	419814
8.82500	413517
8.83333	407395
8.84167	401452
8.85000	395679
8.85833	390086
8.86667	384676
8.87500	379438
8.88333	374389
8.89167	369531
8.90000	364890
8.90833	360455
8.91667	356213
8.92500	352170
8.93333	348323
8.94167	344678
8.95000	341237
8.95833	337984
8.96667	334930
8.97500	332093
8.98333	329451
8.99167	326998
9.00000	324734
9.00833	322643
9.01667	320721
9.02500	318968
9.03333	317377
9.04167	315953
9.05000	314651
9.05833	313469
9.06667	312425
9.07500	311483
9.08333	310638
9.09167	309879
9.10000	309209
9.10833	308610
9.11667	308058
9.12500	307553
9.13333	307080
9.14167	306621
9.15000	306178
9.15833	305723
9.16667	305261
9.17500	304788
9.18333	304278
9.19167	303732
9.20000	303134
9.20833	302478
9.21667	301767
9.22500	300987
9.23333	300117
9.24167	299158
9.25000	298114
9.25833	296984
9.26667	295747
9.27500	294412
9.28333	292984
9.29167	291456
9.30000	289819
9.30833	288061
9.31667	286186
9.32500	284203
9.33333	282124
9.34167	279941
9.35000	277637
9.35833	275230
9.36667	272735
9.37500	270151
9.38333	267474
9.39167	264706
9.40000	261859
9.40833	258928
9.41667	255916
9.42500	252818
9.43333	249648
9.44167	246425
9.45000	243138
9.45833	239795
9.46667	236399
9.47500	232964
9.48333	229496
9.49167	225995
9.50000	222484
9.50833	218949
9.51667	215377
9.52500	211791
9.53333	208179
9.54167	204560
9.55000	200947
9.55833	197341
9.56667	193743
9.57500	190153
9.58333	186572
9.59167	183017
9.60000	179487
9.60833	175984
9.61667	172515
9.62500	169083
9.63333	165699
9.64167	162357
9.65000	159048
9.65833	155791
9.66667	152579
9.67500	149408
9.68333	146282
9.69167	143215
9.70000	140187
9.70833	137199
9.71667	134259
9.72500	131380
9.73333	128562
9.74167	125802
9.75000	123090
9.75833	120423
9.76667	117812
9.77500	115253
9.78333	112748
9.79167	110298
9.80000	107905
9.80833	105572
9.81667	103299
9.82500	101080
9.83333	98907
9.84167	96781
9.85000	94706
9.85833	92676
9.86667	90702
9.87500	88779
9.88333	86898
9.89167	85051
9.90000	83251
9.90833	81490
9.91667	79767
9.92500	78089
9.93333	76454
9.94167	74858
9.95000	73299
9.95833	71773
9.96667	70283
9.97500	68827
9.98333	67413
9.99167	66025
10.00000	64669
10.00833	63349
10.01667	62064
10.02500	60807
10.03333	59574
10.04167	58369
10.05000	57196
10.05833	56050
10.06667	54924
10.07500	53821
10.08333	52746
10.09167	51691
10.10000	50658
10.10833	49645
10.11667	48656
10.12500	47685
10.13333	46735
10.14167	45802
10.15000	44888
10.15833	43999
10.16667	43124
10.17500	42256
10.18333	41411
10.19167	40586
10.20000	39777
10.20833	38988
10.21667	38217
10.22500	37462
10.23333	36718
10.24167	35987
10.25000	35270
10.25833	34569
10.26667	33886
10.27500	33223
10.28333	32572
10.29167	31940
10.30000	31322
10.30833	30712
10.31667	30109
10.32500	29515
10.33333	28926
10.34167	28353
10.35000	27791
10.35833	27247
10.36667	26712
10.37500	26191
10.38333	25685
10.39167	25183
10.40000	24688
10.40833	24203
10.41667	23729
10.42500	23261
10.43333	22804
10.44167	22358
10.45000	21919
10.45833	21486
10.46667	21058
10.47500	20639
10.48333	20231
10.49167	19828
10.50000	19430
10.50833	19040
10.51667	18657
10.52500	18284
10.53333	17918
10.54167	17561
10.55000	17208
10.55833	16859
10.56667	16513
10.57500	16171
10.58333	15833
10.59167	15501
10.60000	15178
10.60833	14867
10.61667	14555
10.62500	14250
10.63333	13952
10.64167	13654
10.65000	13365
10.65833	13085
10.66667	12807
10.67500	12527
10.68333	12253
10.69167	11986
10.70000	11725
10.70833	11466
10.71667	11205
10.72500	10949
10.73333	10694
10.74167	10443
10.75000	10198
10.75833	9959
10.76667	9724
10.77500	9488
10.78333	9259
10.79167	9036
10.80000	8816
10.80833	8597
10.81667	8382
10.82500	8175
10.83333	7969
10.84167	7764
10.85000	7564
10.85833	7362
10.86667	7159
10.87500	6959
10.88333	6762
10.89167	6569
10.90000	6382
10.90833	6200
10.91667	6016
10.92500	5830
10.93333	5645
10.94167	5463
10.95000	5282
10.95833	5095
10.96667	4912
10.97500	4735
10.98333	4559
10.99167	4387
11.00000	4215

[LC Status Trace(Pump A Pressure)]
Interval(msec)	1000
# of Points	661
Start Time(min)	0.000
End Time(min)	11.000
Intensity Units	kgf/cm2
Intensity Multiplier	1
R.Time (min)	Intensity
0.00000	43.9
0.01667	43.9
0.03333	34.4
0.05000	34.3
0.06667	35.6
0.08333	37.8
0.10000	39.3
0.11667	40.1
0.13333	41.0
0.15000	41.8
0.16667	42.1
0.18333	42.6
0.20000	43.0
0.21667	43.2
0.23333	43.4
0.25000	43.5
0.26667	43.8
0.28333	43.8
0.30000	43.9
0.31667	43.9
0.33333	44.0
0.35000	44.1
0.36667	44.0
0.38333	44.3
0.40000	44.3
0.41667	44.4
0.43333	44.4
0.45000	44.5
0.46667	44.4
0.48333	44.7
0.50000	44.5
0.51667	44.5
0.53333	44.5
0.55000	44.4
0.56667	44.4
0.58333	44.4
0.60000	44.4
0.61667	44.4
0.63333	44.3
0.65000	44.4
0.66667	44.3
0.68333	44.4
0.70000	44.4
0.71667	44.4
0.73333	44.4
0.75000	44.3
0.76667	44.3
0.78333	44.3
0.80000	44.4
0.81667	44.1
0.83333	44.3
0.85000	44.3
0.86667	44.1
0.88333	44.1
0.90000	44.1
0.91667	44.3
0.93333	44.1
0.95000	44.1
0.96667	44.1
0.98333	44.1
1.00000	44.1
1.01667	44.1
1.03333	44.3
1.05000	44.1
1.06667	44.3
1.08333	44.0
1.10000	44.1
1.11667	44.3
1.13333	44.3
1.15000	44.3
1.16667	44.0
1.18333	44.1
1.20000	44.3
1.21667	44.3
1.23333	44.1
1.25000	44.1
1.26667	44.3
1.28333	44.1
1.30000	44.1
1.31667	44.1
1.33333	44.0
1.35000	44.1
1.36667	44.1
1.38333	44.1
1.40000	44.1
1.41667	44.3
1.43333	44.1
1.45000	44.1
1.46667	44.0
1.48333	44.1
1.50000	44.3
1.51667	44.1
1.53333	44.3
1.55000	44.0
1.56667	44.1
1.58333	44.0
1.60000	44.1
1.61667	44.1
1.63333	44.1
1.65000	44.1
1.66667	44.1
1.68333	44.1
1.70000	44.1
1.71667	44.3
1.73333	44.1
1.75000	44.3
1.76667	44.1
1.78333	44.1
1.80000	44.0
1.81667	44.3
1.83333	44.1
1.85000	44.3
1.86667	44.0
1.88333	44.3
1.90000	44.1
1.91667	44.1
1.93333	44.1
1.95000	44.1
1.96667	44.1
1.98333	44.0
2.00000	44.1
2.01667	44.3
2.03333	44.1
2.05000	44.1
2.06667	44.3
2.08333	44.1
2.10000	44.1
2.11667	44.3
2.13333	44.1
2.15000	44.1
2.16667	44.3
2.18333	44.3
2.20000	44.1
2.21667	44.1
2.23333	44.4
2.25000	44.3
2.26667	44.1
2.28333	44.3
2.30000	44.1
2.31667	44.1
2.33333	44.3
2.35000	44.1
2.36667	44.3
2.38333	44.1
2.40000	44.3
2.41667	44.1
2.43333	44.3
2.45000	44.3
2.46667	44.3
2.48333	44.3
2.50000	44.4
2.51667	44.3
2.53333	44.4
2.55000	44.0
2.56667	44.1
2.58333	44.3
2.60000	44.1
2.61667	44.4
2.63333	44.1
2.65000	44.1
2.66667	44.3
2.68333	44.1
2.70000	44.3
2.71667	44.4
2.73333	44.1
2.75000	44.3
2.76667	44.3
2.78333	44.1
2.80000	44.1
2.81667	44.3
2.83333	44.4
2.85000	44.3
2.86667	44.3
2.88333	44.4
2.90000	44.4
2.91667	44.1
2.93333	44.3
2.95000	44.3
2.96667	44.3
2.98333	44.3
3.00000	44.3
3.01667	44.1
3.03333	44.3
3.05000	44.3
3.06667	44.4
3.08333	44.3
3.10000	44.3
3.11667	44.4
3.13333	44.3
3.15000	44.3
3.16667	44.4
3.18333	44.3
3.20000	44.3
3.21667	44.3
3.23333	44.3
3.25000	44.4
3.26667	44.4
3.28333	44.4
3.30000	44.3
3.31667	44.3
3.33333	44.3
3.35000	44.3
3.36667	44.1
3.38333	44.3
3.40000	44.3
3.41667	44.3
3.43333	44.4
3.45000	44.4
3.46667	44.1
3.48333	44.5
3.50000	44.4
3.51667	44.3
3.53333	44.4
3.55000	44.4
3.56667	44.4
3.58333	44.3
3.60000	44.4
3.61667	44.4
3.63333	44.3
3.65000	44.3
3.66667	44.4
3.68333	44.3
3.70000	44.4
3.71667	44.3
3.73333	44.4
3.75000	44.3
3.76667	44.4
3.78333	44.4
3.80000	44.4
3.81667	44.4
3.83333	44.5
3.85000	44.4
3.86667	44.4
3.88333	44.4
3.90000	44.3
3.91667	44.3
3.93333	44.3
3.95000	44.3
3.96667	44.4
3.98333	44.4
4.00000	44.4
4.01667	44.4
4.03333	44.4
4.05000	44.5
4.06667	44.3
4.08333	44.4
4.10000	44.4
4.11667	44.4
4.13333	44.4
4.15000	44.4
4.16667	44.4
4.18333	44.4
4.20000	44.4
4.21667	44.4
4.23333	44.5
4.25000	44.4
4.26667	44.3
4.28333	44.5
4.30000	44.5
4.31667	44.4
4.33333	44.4
4.35000	44.4
4.36667	44.4
4.38333	44.4
4.40000	44.4
4.41667	44.5
4.43333	44.4
4.45000	44.3
4.46667	44.3
4.48333	44.3
4.50000	44.4
4.51667	44.4
4.53333	44.4
4.55000	44.4
4.56667	44.4
4.58333	44.4
4.60000	44.4
4.61667	44.5
4.63333	44.4
4.65000	44.4
4.66667	44.5
4.68333	44.4
4.70000	44.3
4.71667	44.4
4.73333	44.4
4.75000	44.4
4.76667	44.4
4.78333	44.4
4.80000	44.4
4.81667	44.5
4.83333	44.4
4.85000	44.4
4.86667	44.4
4.88333	44.4
4.90000	44.4
4.91667	44.5
4.93333	44.4
4.95000	44.4
4.96667	44.4
4.98333	44.4
5.00000	44.4
5.01667	44.4
5.03333	44.4
5.05000	44.4
5.06667	44.4
5.08333	44.4
5.10000	44.4
5.11667	44.4
5.13333	44.4
5.15000	44.4
5.16667	44.5
5.18333	44.4
5.20000	44.5
5.21667	44.5
5.23333	44.4
5.25000	44.5
5.26667	44.5
5.28333	44.4
5.30000	44.4
5.31667	44.4
5.33333	44.4
5.35000	44.5
5.36667	44.4
5.38333	44.7
5.40000	44.4
5.41667	44.5
5.43333	44.4
5.45000	44.4
5.46667	44.4
5.48333	44.4
5.50000	44.4
5.51667	44.4
5.53333	44.3
5.55000	44.4
5.56667	44.4
5.58333	44.4
5.60000	44.3
5.61667	44.5
5.63333	44.4
5.65000	44.5
5.66667	44.4
5.68333	44.5
5.70000	44.4
5.71667	44.4
5.73333	44.4
5.75000	44.3
5.76667	44.4
5.78333	44.3
5.80000	44.4
5.81667	44.4
5.83333	44.4
5.85000	44.4
5.86667	44.4
5.88333	44.4
5.90000	44.3
5.91667	44.3
5.93333	44.5
5.95000	44.4
5.96667	44.5
5.98333	44.4
6.00000	44.3
6.01667	44.4
6.03333	44.4
6.05000	44.3
6.06667	44.3
6.08333	44.5
6.10000	44.5
6.11667	44.4
6.13333	44.4
6.15000	44.5
6.16667	44.4
6.18333	44.5
6.20000	44.5
6.21667	44.5
6.23333	44.4
6.25000	44.5
6.26667	44.5
6.28333	44.4
6.30000	44.5
6.31667	44.4
6.33333	44.5
6.35000	44.4
6.36667	44.4
6.38333	44.3
6.40000	44.3
6.41667	44.4
6.43333	44.5
6.45000	44.4
6.46667	44.4
6.48333	44.5
6.50000	44.4
6.51667	44.4
6.53333	44.5
6.55000	44.5
6.56667	44.5
6.58333	44.4
6.60000	44.5
6.61667	44.4
6.63333	44.4
6.65000	44.4
6.66667	44.5
6.68333	44.5
6.70000	44.4
6.71667	44.5
6.73333	44.4
6.75000	44.5
6.76667	44.4
6.78333	44.4
6.80000	44.3
6.81667	44.4
6.83333	44.4
6.85000	44.5
6.86667	44.4
6.88333	44.4
6.90000	44.4
6.91667	44.4
6.93333	44.4
6.95000	44.4
6.96667	44.4
6.98333	44.7
7.00000	44.5
7.01667	44.5
7.03333	44.5
7.05000	44.4
7.06667	44.4
7.08333	44.5
7.10000	44.4
7.11667	44.4
7.13333	44.4
7.15000	44.5
7.16667	44.5
7.18333	44.3
7.20000	44.5
7.21667	44.5
7.23333	44.4
7.25000	44.4
7.26667	44.7
7.28333	44.4
7.30000	44.5
7.31667	44.5
7.33333	44.4
7.35000	44.4
7.36667	44.7
7.38333	44.7
7.40000	44.5
7.41667	44.5
7.43333	44.3
7.45000	44.5
7.46667	44.5
7.48333	44.5
7.50000	44.4
7.51667	44.4
7.53333	44.4
7.55000	44.4
7.56667	44.4
7.58333	44.5
7.60000	44.5
7.61667	44.5
7.63333	44.5
7.65000	44.4
7.66667	44.4
7.68333	44.3
7.70000	44.5
7.71667	44.4
7.73333	44.4
7.75000	44.4
7.76667	44.5
7.78333	44.4
7.80000	44.5
7.81667	44.4
7.83333	44.4
7.85000	44.4
7.86667	44.4
7.88333	44.4
7.90000	44.5
7.91667	44.5
7.93333	44.5
7.95000	44.4
7.96667	44.5
7.98333	44.4
8.00000	44.4
8.01667	44.4
8.03333	44.4
8.05000	44.4
8.06667	44.5
8.08333	44.4
8.10000	44.3
8.11667	44.4
8.13333	44.4
8.15000	44.5
8.16667	44.5
8.18333	44.4
8.20000	44.4
8.21667	44.5
8.23333	44.3
8.25000	44.5
8.26667	44.4
8.28333	44.4
8.30000	44.4
8.31667	44.4
8.33333	44.4
8.35000	44.3
8.36667	44.4
8.38333	44.3
8.40000	44.3
8.41667	44.3
8.43333	44.4
8.45000	44.5
8.46667	44.4
8.48333	44.3
8.50000	44.3
8.51667	44.4
8.53333	44.5
8.55000	44.4
8.56667	44.3
8.58333	44.4
8.60000	44.4
8.61667	44.3
8.63333	44.4
8.65000	44.4
8.66667	44.3
8.68333	44.4
8.70000	44.4
8.71667	44.4
8.73333	44.3
8.75000	44.4
8.76667	44.4
8.78333	44.3
8.80000	44.3
8.81667	44.4
8.83333	44.1
8.85000	44.3
8.86667	44.3
8.88333	44.1
8.90000	44.3
8.91667	44.3
8.93333	44.3
8.95000	44.3
8.96667	44.3
8.98333	44.3
9.00000	44.1
9.01667	44.1
9.03333	44.3
9.05000	44.3
9.06667	44.3
9.08333	44.1
9.10000	44.4
9.11667	44.3
9.13333	44.3
9.15000	44.3
9.16667	44.1
9.18333	44.3
9.20000	44.3
9.21667	44.1
9.23333	44.3
9.25000	44.3
9.26667	44.3
9.28333	44.0
9.30000	44.3
9.31667	44.3
9.33333	44.1
9.35000	44.3
9.36667	44.4
9.38333	44.0
9.40000	44.3
9.41667	44.3
9.43333	44.3
9.45000	44.1
9.46667	44.3
9.48333	44.1
9.50000	44.1
9.51667	44.3
9.53333	44.1
9.55000	44.1
9.56667	44.3
9.58333	44.1
9.60000	44.1
9.61667	44.1
9.63333	44.1
9.65000	44.1
9.66667	44.0
9.68333	44.3
9.70000	44.3
9.71667	44.3
9.73333	44.3
9.75000	44.1
9.76667	44.3
9.78333	44.3
9.80000	44.3
9.81667	44.1
9.83333	44.3
9.85000	44.0
9.86667	44.3
9.88333	44.1
9.90000	44.1
9.91667	44.3
9.93333	44.3
9.95000	44.3
9.96667	44.1
9.98333	44.1
10.00000	44.0
10.01667	44.3
10.03333	44.1
10.05000	44.1
10.06667	44.1
10.08333	44.1
10.10000	44.0
10.11667	44.0
10.13333	44.1
10.15000	44.1
10.16667	44.0
10.18333	44.1
10.20000	44.1
10.21667	44.1
10.23333	44.1
10.25000	44.3
10.26667	44.1
10.28333	44.1
10.30000	44.1
10.31667	44.3
10.33333	44.1
10.35000	44.0
10.36667	44.0
10.38333	44.3
10.40000	44.1
10.41667	44.1
10.43333	44.3
10.45000	44.1
10.46667	44.0
10.48333	44.3
10.50000	44.1
10.51667	44.1
10.53333	44.1
10.55000	44.1
10.56667	44.3
10.58333	44.3
10.60000	44.1
10.61667	43.9
10.63333	44.0
10.65000	44.1
10.66667	44.1
10.68333	44.1
10.70000	44.1
10.71667	44.0
10.73333	44.1
10.75000	44.1
10.76667	44.3
10.78333	44.0
10.80000	44.1
10.81667	44.1
10.83333	44.0
10.85000	44.0
10.86667	44.0
10.88333	44.0
10.90000	44.1
10.91667	44.1
10.93333	44.1
10.95000	44.1
10.96667	44.0
10.98333	44.1
11.00000	44.0

[LC Status Trace(UV Cell Temp.)]
Interval(msec)	1000
# of Points	661
Start Time(min)	0.000
End Time(min)	11.000
Intensity Units	C
Intensity Multiplier	1
R.Time (min)	Intensity
0.00000	40.00
0.01667	40.00
0.03333	40.00
0.05000	40.00
0.06667	40.00
0.08333	40.00
0.10000	40.00
0.11667	40.00
0.13333	40.00
0.15000	40.02
0.16667	40.00
0.18333	40.02
0.20000	40.00
0.21667	40.00
0.23333	40.00
0.25000	40.03
0.26667	40.00
0.28333	40.00
0.30000	40.00
0.31667	40.00
0.33333	40.02
0.35000	40.00
0.36667	40.00
0.38333	40.00
0.40000	40.00
0.41667	40.00
0.43333	40.00
0.45000	39.99
0.46667	40.00
0.48333	39.97
0.50000	40.00
0.51667	40.00
0.53333	40.00
0.55000	40.00
0.56667	39.99
0.58333	40.00
0.60000	40.00
0.61667	40.00
0.63333	40.00
0.65000	39.99
0.66667	40.00
0.68333	40.00
0.70000	40.00
0.71667	39.99
0.73333	39.97
0.75000	39.98
0.76667	39.98
0.78333	40.00
0.80000	40.00
0.81667	39.99
0.83333	39.99
0.85000	40.00
0.86667	40.02
0.88333	40.00
0.90000	39.97
0.91667	39.95
0.93333	39.96
0.95000	40.00
0.96667	40.00
0.98333	40.00
1.00000	40.00
1.01667	40.00
1.03333	39.99
1.05000	39.99
1.06667	40.00
1.08333	40.00
1.10000	39.97
1.11667	39.98
1.13333	40.00
1.15000	40.00
1.16667	40.02
1.18333	40.00
1.20000	40.00
1.21667	40.00
1.23333	40.00
1.25000	40.00
1.26667	40.00
1.28333	40.00
1.30000	40.00
1.31667	39.99
1.33333	40.00
1.35000	40.00
1.36667	40.00
1.38333	40.00
1.40000	40.00
1.41667	40.00
1.43333	39.99
1.45000	39.99
1.46667	40.00
1.48333	40.02
1.50000	40.00
1.51667	40.00
1.53333	40.00
1.55000	40.00
1.56667	39.99
1.58333	39.99
1.60000	39.99
1.61667	40.00
1.63333	40.00
1.65000	39.99
1.66667	40.00
1.68333	40.00
1.70000	39.97
1.71667	39.97
1.73333	40.00
1.75000	40.00
1.76667	40.00
1.78333	40.00
1.80000	39.99
1.81667	40.00
1.83333	40.00
1.85000	40.00
1.86667	40.00
1.88333	39.99
1.90000	39.93
1.91667	39.96
1.93333	39.98
1.95000	39.98
1.96667	40.00
1.98333	40.00
2.00000	40.00
2.01667	39.99
2.03333	40.00
2.05000	40.00
2.06667	40.00
2.08333	39.98
2.10000	40.03
2.11667	40.02
2.13333	40.00
2.15000	39.99
2.16667	39.97
2.18333	39.93
2.20000	39.97
2.21667	39.99
2.23333	39.99
2.25000	39.99
2.26667	40.00
2.28333	39.99
2.30000	40.00
2.31667	40.00
2.33333	39.99
2.35000	39.99
2.36667	40.00
2.38333	40.00
2.40000	40.00
2.41667	40.00
2.43333	40.00
2.45000	40.05
2.46667	40.00
2.48333	40.00
2.50000	39.99
2.51667	40.00
2.53333	40.00
2.55000	40.00
2.56667	40.00
2.58333	40.00
2.60000	40.02
2.61667	40.00
2.63333	40.00
2.65000	40.02
2.66667	40.00
2.68333	39.99
2.70000	39.95
2.71667	39.96
2.73333	39.98
2.75000	40.00
2.76667	40.00
2.78333	40.00
2.80000	40.00
2.81667	40.00
2.83333	40.00
2.85000	40.00
2.86667	40.00
2.88333	39.99
2.90000	39.99
2.91667	40.00
2.93333	40.02
2.95000	40.00
2.96667	39.99
2.98333	40.00
3.00000	40.02
3.01667	39.99
3.03333	39.96
3.05000	39.93
3.06667	39.95
3.08333	39.96
3.10000	39.98
3.11667	40.00
3.13333	40.00
3.15000	40.00
3.16667	39.99
3.18333	40.00
3.20000	39.99
3.21667	40.00
3.23333	39.99
3.25000	40.00
3.26667	40.00
3.28333	40.00
3.30000	40.00
3.31667	40.00
3.33333	40.02
3.35000	40.00
3.36667	40.00
3.38333	40.05
3.40000	40.00
3.41667	39.98
3.43333	39.97
3.45000	39.96
3.46667	39.93
3.48333	39.99
3.50000	40.00
3.51667	40.00
3.53333	39.97
3.55000	39.99
3.56667	40.06
3.58333	40.05
3.60000	40.00
3.61667	40.00
3.63333	40.00
3.65000	40.02
3.66667	40.00
3.68333	40.00
3.70000	40.05
3.71667	40.05
3.73333	40.00
3.75000	40.00
3.76667	40.00
3.78333	40.00
3.80000	39.99
3.81667	40.02
3.83333	40.00
3.85000	40.00
3.86667	40.02
3.88333	40.00
3.90000	40.00
3.91667	40.00
3.93333	40.00
3.95000	40.00
3.96667	40.00
3.98333	40.00
4.00000	40.00
4.01667	40.00
4.03333	40.00
4.05000	39.99
4.06667	39.98
4.08333	39.95
4.10000	39.97
4.11667	39.99
4.13333	39.99
4.15000	39.93
4.16667	39.93
4.18333	39.93
4.20000	39.98
4.21667	40.00
4.23333	39.98
4.25000	39.93
4.26667	39.96
4.28333	39.98
4.30000	39.93
4.31667	39.93
4.33333	39.93
4.35000	39.96
4.36667	39.96
4.38333	39.97
4.40000	40.00
4.41667	39.97
4.43333	39.93
4.45000	39.93
4.46667	39.93
4.48333	39.93
4.50000	39.99
4.51667	39.96
4.53333	39.93
4.55000	39.97
4.56667	40.00
4.58333	40.03
4.60000	40.02
4.61667	40.03
4.63333	40.00
4.65000	40.00
4.66667	40.00
4.68333	40.00
4.70000	40.06
4.71667	40.03
4.73333	40.00
4.75000	40.00
4.76667	40.00
4.78333	40.00
4.80000	40.00
4.81667	40.00
4.83333	39.99
4.85000	40.00
4.86667	39.99
4.88333	40.00
4.90000	40.00
4.91667	40.00
4.93333	39.98
4.95000	39.99
4.96667	39.97
4.98333	39.97
5.00000	39.97
5.01667	40.00
5.03333	40.00
5.05000	40.00
5.06667	40.00
5.08333	40.00
5.10000	40.00
5.11667	40.00
5.13333	40.00
5.15000	40.00
5.16667	40.00
5.18333	40.00
5.20000	40.00
5.21667	40.00
5.23333	40.00
5.25000	39.99
5.26667	40.00
5.28333	39.98
5.30000	40.00
5.31667	40.00
5.33333	40.00
5.35000	40.00
5.36667	40.00
5.38333	40.00
5.40000	40.00
5.41667	40.00
5.43333	40.00
5.45000	39.99
5.46667	39.97
5.48333	39.93
5.50000	39.99
5.51667	40.00
5.53333	40.00
5.55000	40.00
5.56667	39.99
5.58333	40.00
5.60000	40.00
5.61667	40.00
5.63333	40.00
5.65000	40.00
5.66667	40.00
5.68333	39.97
5.70000	39.96
5.71667	39.98
5.73333	39.99
5.75000	40.00
5.76667	40.02
5.78333	40.00
5.80000	40.00
5.81667	40.00
5.83333	39.99
5.85000	39.99
5.86667	40.00
5.88333	39.99
5.90000	39.95
5.91667	40.00
5.93333	40.00
5.95000	40.00
5.96667	40.00
5.98333	40.00
6.00000	40.00
6.01667	40.00
6.03333	40.00
6.05000	40.00
6.06667	40.00
6.08333	40.00
6.10000	39.99
6.11667	40.00
6.13333	40.00
6.15000	40.00
6.16667	40.00
6.18333	40.00
6.20000	40.00
6.21667	39.99
6.23333	40.02
6.25000	40.03
6.26667	40.00
6.28333	40.00
6.30000	40.00
6.31667	39.99
6.33333	40.00
6.35000	40.00
6.36667	39.99
6.38333	39.99
6.40000	40.00
6.41667	40.00
6.43333	40.00
6.45000	40.00
6.46667	40.00
6.48333	39.99
6.50000	39.98
6.51667	39.97
6.53333	39.96
6.55000	39.95
6.56667	39.93
6.58333	39.97
6.60000	39.99
6.61667	39.99
6.63333	40.00
6.65000	40.00
6.66667	40.00
6.68333	40.00
6.70000	40.00
6.71667	40.00
6.73333	40.02
6.75000	40.00
6.76667	40.00
6.78333	40.02
6.80000	40.00
6.81667	40.00
6.83333	40.00
6.85000	40.00
6.86667	40.00
6.88333	40.00
6.90000	40.00
6.91667	40.02
6.93333	40.00
6.95000	39.98
6.96667	39.97
6.98333	39.98
7.00000	39.95
7.01667	39.99
7.03333	40.02
7.05000	40.00
7.06667	40.00
7.08333	39.99
7.10000	40.03
7.11667	40.02
7.13333	40.00
7.15000	40.00
7.16667	40.00
7.18333	40.02
7.20000	40.00
7.21667	40.00
7.23333	40.00
7.25000	40.00
7.26667	40.00
7.28333	40.00
7.30000	39.99
7.31667	40.00
7.33333	40.02
7.35000	39.99
7.36667	40.00
7.38333	40.00
7.40000	40.00
7.41667	39.98
7.43333	39.99
7.45000	40.00
7.46667	40.00
7.48333	40.00
7.50000	40.00
7.51667	40.00
7.53333	40.00
7.55000	40.00
7.56667	39.99
7.58333	40.00
7.60000	40.00
7.61667	39.99
7.63333	40.00
7.65000	40.00
7.66667	40.00
7.68333	40.00
7.70000	40.00
7.71667	40.00
7.73333	40.00
7.75000	40.00
7.76667	39.99
7.78333	40.00
7.80000	40.00
7.81667	40.03
7.83333	40.03
7.85000	40.00
7.86667	40.00
7.88333	40.00
7.90000	40.03
7.91667	40.07
7.93333	40.02
7.95000	40.00
7.96667	40.00
7.98333	40.00
8.00000	40.00
8.01667	39.97
8.03333	39.95
8.05000	40.00
8.06667	40.00
8.08333	40.00
8.10000	40.00
8.11667	40.03
8.13333	40.02
8.15000	40.00
8.16667	39.98
8.18333	39.93
8.20000	40.00
8.21667	40.00
8.23333	39.99
8.25000	40.00
8.26667	40.00
8.28333	40.00
8.30000	40.00
8.31667	40.00
8.33333	40.00
8.35000	40.00
8.36667	40.00
8.38333	40.00
8.40000	40.00
8.41667	40.00
8.43333	40.00
8.45000	40.00
8.46667	39.97
8.48333	39.96
8.50000	39.98
8.51667	40.00
8.53333	39.99
8.55000	40.00
8.56667	40.00
8.58333	40.05
8.60000	40.00
8.61667	39.99
8.63333	40.00
8.65000	40.00
8.66667	39.99
8.68333	40.00
8.70000	40.00
8.71667	40.00
8.73333	40.00
8.75000	40.00
8.76667	40.00
8.78333	40.00
8.80000	39.99
8.81667	40.00
8.83333	40.00
8.85000	39.96
8.86667	39.93
8.88333	39.91
8.90000	40.02
8.91667	40.02
8.93333	40.00
8.95000	40.00
8.96667	40.00
8.98333	40.00
9.00000	40.00
9.01667	40.00
9.03333	40.00
9.05000	40.02
9.06667	40.02
9.08333	40.03
9.10000	40.03
9.11667	40.03
9.13333	40.00
9.15000	40.00
9.16667	40.00
9.18333	39.99
9.20000	40.00
9.21667	40.00
9.23333	40.00
9.25000	40.00
9.26667	39.98
9.28333	39.99
9.30000	40.00
9.31667	40.00
9.33333	40.00
9.35000	40.00
9.36667	40.00
9.38333	40.00
9.40000	40.00
9.41667	40.00
9.43333	40.00
9.45000	39.99
9.46667	40.00
9.48333	40.00
9.50000	40.00
9.51667	40.00
9.53333	39.99
9.55000	39.99
9.56667	40.02
9.58333	40.00
9.60000	40.00
9.61667	40.00
9.63333	40.00
9.65000	40.00
9.66667	40.00
9.68333	40.00
9.70000	40.00
9.71667	40.00
9.73333	40.00
9.75000	40.00
9.76667	40.03
9.78333	40.03
9.80000	40.00
9.81667	39.99
9.83333	40.00
9.85000	40.02
9.86667	40.00
9.88333	39.97
9.90000	39.99
9.91667	40.00
9.93333	40.00
9.95000	39.93
9.96667	39.98
9.98333	40.00
10.00000	39.99
10.01667	40.00
10.03333	40.00
10.05000	40.00
10.06667	40.00
10.08333	40.00
10.10000	40.00
10.11667	40.00
10.13333	39.99
10.15000	40.00
10.16667	40.00
10.18333	40.02
10.20000	40.00
10.21667	40.00
10.23333	40.05
10.25000	39.99
10.26667	39.97
10.28333	39.99
10.30000	40.00
10.31667	40.00
10.33333	40.00
10.35000	40.00
10.36667	40.00
10.38333	40.00
10.40000	39.99
10.41667	40.07
10.43333	40.07
10.45000	39.99
10.46667	39.99
10.48333	39.98
10.50000	40.00
10.51667	40.00
10.53333	40.00
10.55000	40.00
10.56667	40.00
10.58333	40.00
10.60000	39.99
10.61667	39.99
10.63333	40.00
10.65000	39.98
10.66667	39.97
10.68333	39.97
10.70000	40.00
10.71667	40.00
10.73333	40.00
10.75000	40.00
10.76667	40.00
10.78333	40.00
10.80000	40.00
10.81667	40.00
10.83333	39.98
10.85000	39.97
10.86667	39.95
10.88333	39.96
10.90000	39.97
10.91667	39.98
10.93333	39.98
10.95000	40.00
10.96667	39.99
10.98333	40.00
11.00000	40.03

[LC Status Trace(RF B Cell Temp.)]
Interval(msec)	1000
# of Points	661
Start Time(min)	0.000
End Time(min)	11.000
Intensity Units	C
Intensity Multiplier	1
R.Time (min)	Intensity
0.00000	30.02
0.01667	30.02
0.03333	30.02
0.05000	30.02
0.06667	30.02
0.08333	30.02
0.10000	30.02
0.11667	30.02
0.13333	30.02
0.15000	30.02
0.16667	30.02
0.18333	30.02
0.20000	30.02
0.21667	30.02
0.23333	30.02
0.25000	30.02
0.26667	30.02
0.28333	30.02
0.30000	30.02
0.31667	30.02
0.33333	30.02
0.35000	30.02
0.36667	30.02
0.38333	30.02
0.40000	30.02
0.41667	30.02
0.43333	30.02
0.45000	30.02
0.46667	30.02
0.48333	30.02
0.50000	30.02
0.51667	30.02
0.53333	30.02
0.55000	30.02
0.56667	30.02
0.58333	30.02
0.60000	30.02
0.61667	30.02
0.63333	30.02
0.65000	30.02
0.66667	30.02
0.68333	30.02
0.70000	30.02
0.71667	30.02
0.73333	30.02
0.75000	30.02
0.76667	30.02
0.78333	30.02
0.80000	30.03
0.81667	30.03
0.83333	30.03
0.85000	30.03
0.86667	30.03
0.88333	30.03
0.90000	30.03
0.91667	30.03
0.93333	30.03
0.95000	30.03
0.96667	30.03
0.98333	30.03
1.00000	30.03
1.01667	30.03
1.03333	30.03
1.05000	30.03
1.06667	30.03
1.08333	30.03
1.10000	30.03
1.11667	30.03
1.13333	30.03
1.15000	30.03
1.16667	30.03
1.18333	30.03
1.20000	30.03
1.21667	30.03
1.23333	30.03
1.25000	30.03
1.26667	30.03
1.28333	30.03
1.30000	30.03
1.31667	30.03
1.33333	30.03
1.35000	30.03
1.36667	30.03
1.38333	30.03
1.40000	30.03
1.41667	30.03
1.43333	30.03
1.45000	30.03
1.46667	30.03
1.48333	30.03
1.50000	30.03
1.51667	30.03
1.53333	30.03
1.55000	30.03
1.56667	30.03
1.58333	30.03
1.60000	30.03
1.61667	30.03
1.63333	30.03
1.65000	30.03
1.66667	30.03
1.68333	30.03
1.70000	30.03
1.71667	30.03
1.73333	30.03
1.75000	30.03
1.76667	30.04
1.78333	30.04
1.80000	30.04
1.81667	30.04
1.83333	30.04
1.85000	30.04
1.86667	30.04
1.88333	30.04
1.90000	30.04
1.91667	30.04
1.93333	30.04
1.95000	30.04
1.96667	30.04
1.98333	30.04
2.00000	30.04
2.01667	30.04
2.03333	30.04
2.05000	30.04
2.06667	30.04
2.08333	30.04
2.10000	30.04
2.11667	30.04
2.13333	30.04
2.15000	30.04
2.16667	30.04
2.18333	30.04
2.20000	30.04
2.21667	30.04
2.23333	30.04
2.25000	30.04
2.26667	30.04
2.28333	30.04
2.30000	30.04
2.31667	30.04
2.33333	30.04
2.35000	30.04
2.36667	30.04
2.38333	30.04
2.40000	30.04
2.41667	30.04
2.43333	30.04
2.45000	30.04
2.46667	30.04
2.48333	30.04
2.50000	30.04
2.51667	30.04
2.53333	30.04
2.55000	30.04
2.56667	30.04
2.58333	30.04
2.60000	30.04
2.61667	30.04
2.63333	30.04
2.65000	30.04
2.66667	30.04
2.68333	30.04
2.70000	30.04
2.71667	30.04
2.73333	30.04
2.75000	30.04
2.76667	30.04
2.78333	30.04
2.80000	30.04
2.81667	30.04
2.83333	30.04
2.85000	30.04
2.86667	30.04
2.88333	30.04
2.90000	30.04
2.91667	30.04
2.93333	30.04
2.95000	30.04
2.96667	30.04
2.98333	30.04
3.00000	30.04
3.01667	30.04
3.03333	30.04
3.05000	30.04
3.06667	30.04
3.08333	30.04
3.10000	30.04
3.11667	30.04
3.13333	30.04
3.15000	30.04
3.16667	30.04
3.18333	30.04
3.20000	30.04
3.21667	30.04
3.23333	30.04
3.25000	30.04
3.26667	30.04
3.28333	30.04
3.30000	30.04
3.31667	30.04
3.33333	30.04
3.35000	30.04
3.36667	30.04
3.38333	30.04
3.40000	30.04
3.41667	30.04
3.43333	30.04
3.45000	30.04
3.46667	30.04
3.48333	30.04
3.50000	30.04
3.51667	30.04
3.53333	30.04
3.55000	30.04
3.56667	30.04
3.58333	30.04
3.60000	30.04
3.61667	30.04
3.63333	30.04
3.65000	30.04
3.66667	30.04
3.68333	30.04
3.70000	30.04
3.71667	30.04
3.73333	30.04
3.75000	30.04
3.76667	30.05
3.78333	30.05
3.80000	30.05
3.81667	30.05
3.83333	30.05
3.85000	30.05
3.86667	30.05
3.88333	30.05
3.90000	30.05
3.91667	30.05
3.93333	30.05
3.95000	30.05
3.96667	30.05
3.98333	30.05
4.00000	30.05
4.01667	30.05
4.03333	30.05
4.05000	30.05
4.06667	30.05
4.08333	30.05
4.10000	30.05
4.11667	30.05
4.13333	30.05
4.15000	30.05
4.16667	30.05
4.18333	30.05
4.20000	30.05
4.21667	30.05
4.23333	30.05
4.25000	30.05
4.26667	30.05
4.28333	30.05
4.30000	30.05
4.31667	30.05
4.33333	30.04
4.35000	30.04
4.36667	30.04
4.38333	30.04
4.40000	30.04
4.41667	30.04
4.43333	30.04
4.45000	30.04
4.46667	30.04
4.48333	30.04
4.50000	30.04
4.51667	30.04
4.53333	30.04
4.55000	30.04
4.56667	30.04
4.58333	30.04
4.60000	30.04
4.61667	30.04
4.63333	30.04
4.65000	30.04
4.66667	30.04
4.68333	30.04
4.70000	30.04
4.71667	30.04
4.73333	30.04
4.75000	30.04
4.76667	30.04
4.78333	30.04
4.80000	30.04
4.81667	30.04
4.83333	30.04
4.85000	30.04
4.86667	30.04
4.88333	30.04
4.90000	30.04
4.91667	30.04
4.93333	30.04
4.95000	30.04
4.96667	30.04
4.98333	30.04
5.00000	30.04
5.01667	30.04
5.03333	30.04
5.05000	30.04
5.06667	30.04
5.08333	30.04
5.10000	30.04
5.11667	30.04
5.13333	30.04
5.15000	30.04
5.16667	30.04
5.18333	30.04
5.20000	30.04
5.21667	30.04
5.23333	30.04
5.25000	30.04
5.26667	30.04
5.28333	30.04
5.30000	30.04
5.31667	30.04
5.33333	30.04
5.35000	30.04
5.36667	30.04
5.38333	30.04
5.40000	30.04
5.41667	30.05
5.43333	30.05
5.45000	30.05
5.46667	30.05
5.48333	30.05
5.50000	30.05
5.51667	30.05
5.53333	30.05
5.55000	30.05
5.56667	30.05
5.58333	30.05
5.60000	30.05
5.61667	30.05
5.63333	30.05
5.65000	30.05
5.66667	30.05
5.68333	30.05
5.70000	30.05
5.71667	30.05
5.73333	30.05
5.75000	30.05
5.76667	30.05
5.78333	30.04
5.80000	30.04
5.81667	30.04
5.83333	30.04
5.85000	30.04
5.86667	30.04
5.88333	30.04
5.90000	30.04
5.91667	30.04
5.93333	30.04
5.95000	30.04
5.96667	30.04
5.98333	30.04
6.00000	30.04
6.01667	30.04
6.03333	30.04
6.05000	30.04
6.06667	30.04
6.08333	30.04
6.10000	30.04
6.11667	30.04
6.13333	30.04
6.15000	30.04
6.16667	30.04
6.18333	30.04
6.20000	30.04
6.21667	30.04
6.23333	30.04
6.25000	30.04
6.26667	30.04
6.28333	30.04
6.30000	30.04
6.31667	30.04
6.33333	30.04
6.35000	30.04
6.36667	30.04
6.38333	30.04
6.40000	30.04
6.41667	30.04
6.43333	30.04
6.45000	30.04
6.46667	30.04
6.48333	30.04
6.50000	30.04
6.51667	30.04
6.53333	30.04
6.55000	30.05
6.56667	30.05
6.58333	30.05
6.60000	30.05
6.61667	30.05
6.63333	30.05
6.65000	30.05
6.66667	30.05
6.68333	30.05
6.70000	30.05
6.71667	30.05
6.73333	30.05
6.75000	30.05
6.76667	30.05
6.78333	30.05
6.80000	30.05
6.81667	30.05
6.83333	30.05
6.85000	30.05
6.86667	30.05
6.88333	30.05
6.90000	30.05
6.91667	30.05
6.93333	30.05
6.95000	30.05
6.96667	30.05
6.98333	30.05
7.00000	30.05
7.01667	30.05
7.03333	30.05
7.05000	30.05
7.06667	30.05
7.08333	30.05
7.10000	30.05
7.11667	30.05
7.13333	30.05
7.15000	30.05
7.16667	30.05
7.18333	30.05
7.20000	30.05
7.21667	30.05
7.23333	30.05
7.25000	30.05
7.26667	30.05
7.28333	30.05
7.30000	30.05
7.31667	30.05
7.33333	30.05
7.35000	30.05
7.36667	30.05
7.38333	30.05
7.40000	30.05
7.41667	30.05
7.43333	30.05
7.45000	30.05
7.46667	30.05
7.48333	30.05
7.50000	30.05
7.51667	30.05
7.53333	30.05
7.55000	30.05
7.56667	30.05
7.58333	30.05
7.60000	30.05
7.61667	30.05
7.63333	30.05
7.65000	30.05
7.66667	30.05
7.68333	30.05
7.70000	30.05
7.71667	30.05
7.73333	30.05
7.75000	30.05
7.76667	30.05
7.78333	30.05
7.80000	30.05
7.81667	30.05
7.83333	30.05
7.85000	30.05
7.86667	30.05
7.88333	30.05
7.90000	30.05
7.91667	30.05
7.93333	30.05
7.95000	30.05
7.96667	30.05
7.98333	30.05
8.00000	30.05
8.01667	30.05
8.03333	30.05
8.05000	30.05
8.06667	30.05
8.08333	30.05
8.10000	30.05
8.11667	30.05
8.13333	30.05
8.15000	30.05
8.16667	30.05
8.18333	30.05
8.20000	30.05
8.21667	30.05
8.23333	30.05
8.25000	30.05
8.26667	30.05
8.28333	30.05
8.30000	30.05
8.31667	30.05
8.33333	30.05
8.35000	30.05
8.36667	30.05
8.38333	30.05
8.40000	30.05
8.41667	30.05
8.43333	30.05
8.45000	30.05
8.46667	30.06
8.48333	30.06
8.50000	30.06
8.51667	30.06
8.53333	30.06
8.55000	30.06
8.56667	30.06
8.58333	30.06
8.60000	30.06
8.61667	30.06
8.63333	30.06
8.65000	30.06
8.66667	30.06
8.68333	30.06
8.70000	30.06
8.71667	30.06
8.73333	30.06
8.75000	30.06
8.76667	30.06
8.78333	30.06
8.80000	30.06
8.81667	30.06
8.83333	30.06
8.85000	30.06
8.86667	30.06
8.88333	30.06
8.90000	30.06
8.91667	30.06
8.93333	30.06
8.95000	30.06
8.96667	30.06
8.98333	30.06
9.00000	30.06
9.01667	30.06
9.03333	30.06
9.05000	30.06
9.06667	30.06
9.08333	30.06
9.10000	30.06
9.11667	30.07
9.13333	30.07
9.15000	30.07
9.16667	30.07
9.18333	30.07
9.20000	30.07
9.21667	30.07
9.23333	30.07
9.25000	30.07
9.26667	30.07
9.28333	30.07
9.30000	30.07
9.31667	30.07
9.33333	30.07
9.35000	30.07
9.36667	30.07
9.38333	30.07
9.40000	30.07
9.41667	30.07
9.43333	30.07
9.45000	30.07
9.46667	30.07
9.48333	30.07
9.50000	30.07
9.51667	30.07
9.53333	30.07
9.55000	30.07
9.56667	30.07
9.58333	30.07
9.60000	30.07
9.61667	30.07
9.63333	30.07
9.65000	30.07
9.66667	30.07
9.68333	30.07
9.70000	30.08
9.71667	30.08
9.73333	30.08
9.75000	30.08
9.76667	30.08
9.78333	30.08
9.80000	30.08
9.81667	30.08
9.83333	30.08
9.85000	30.08
9.86667	30.08
9.88333	30.08
9.90000	30.08
9.91667	30.08
9.93333	30.08
9.95000	30.08
9.96667	30.08
9.98333	30.08
10.00000	30.08
10.01667	30.08
10.03333	30.08
10.05000	30.08
10.06667	30.08
10.08333	30.08
10.10000	30.08
10.11667	30.08
10.13333	30.08
10.15000	30.08
10.16667	30.08
10.18333	30.08
10.20000	30.08
10.21667	30.08
10.23333	30.08
10.25000	30.08
10.26667	30.08
10.28333	30.08
10.30000	30.08
10.31667	30.08
10.33333	30.08
10.35000	30.08
10.36667	30.08
10.38333	30.08
10.40000	30.08
10.41667	30.08
10.43333	30.08
10.45000	30.08
10.46667	30.08
10.48333	30.08
10.50000	30.08
10.51667	30.08
10.53333	30.08
10.55000	30.08
10.56667	30.08
10.58333	30.08
10.60000	30.08
10.61667	30.08
10.63333	30.08
10.65000	30.08
10.66667	30.08
10.68333	30.08
10.70000	30.08
10.71667	30.08
10.73333	30.08
10.75000	30.08
10.76667	30.08
10.78333	30.08
10.80000	30.08
10.81667	30.08
10.83333	30.08
10.85000	30.08
10.86667	30.08
10.88333	30.08
10.90000	30.08
10.91667	30.08
10.93333	30.08
10.95000	30.08
10.96667	30.08
10.98333	30.08
11.00000	30.08

[Fraction Collection Report]
# of Fractions	0

