[Header]
Application Name	LCsolution
Version	1.25
Data File Name	D:\1F-FSEC\140725ayase_166_4_17.lcd
Output Date	2014/07/28
Output Time	11:34:39

[File Information]
Type	Data File
Generated	2014/07/26 7:36:25
Generated by	System Administrator
Modified	2014/07/26 7:47:54
Modified by	System Administrator

[Sample Information]
Operator Name	System Administrator
Acquired	2014/07/26 7:36:51
Sample Type	0:Unknown
Level	0
Sample Name	166_4
Sample ID	
ISTD Amount 1	1
ISTD Amount 2	1
ISTD Amount 3	1
ISTD Amount 4	1
ISTD Amount 5	1
ISTD Amount 6	1
ISTD Amount 7	1
ISTD Amount 8	1
ISTD Amount 9	1
ISTD Amount 10	1
ISTD Amount 11	1
ISTD Amount 12	1
ISTD Amount 13	1
ISTD Amount 14	1
ISTD Amount 15	1
ISTD Amount 16	1
ISTD Amount 17	1
ISTD Amount 18	1
ISTD Amount 19	1
ISTD Amount 20	1
ISTD Amount 21	1
ISTD Amount 22	1
ISTD Amount 23	1
ISTD Amount 24	1
ISTD Amount 25	1
ISTD Amount 26	1
ISTD Amount 27	1
ISTD Amount 28	1
ISTD Amount 29	1
ISTD Amount 30	1
ISTD Amount 31	1
ISTD Amount 32	1
Sample Amount	1
Dilution Factor	1
Vial#	1
Injection Volume	50

[Original Files]
Data File	D:\1F-FSEC\140725ayase_166_4_17.lcd
Method File	D:\1F-FSEC\2-B-P3NTA_miniINC_0.36_11m.lcm
Batch File	D:\1F-FSEC\140725ayase.lcb
Report Format File	C:\LabSolutions\LCsolution\System\Default.lcr
Tuning File	

[File Description]


[Configuration]
# of Detectors	2
Detector ID	Detector A	Detector B
Detector Name	åüèoäÌA	åüèoäÌB
# of Channels	1	1

[Peak Table(Detector A-Ch1)]
# of Peaks	5
Peak#	R.Time	I.Time	F.Time	Area	Height	A/H	Conc.	Mark	ID#	Name	k'	Plate #	Plate Ht.	Tailing	Resolution	Sep.Factor	Conc. %	Norm Conc.
1	1.317	0.758	1.350	2195	57	38.6310	0.0000	 V 			0.000	15	10142.715	0.000	0.000	0.000	0.0000	0.0000
2	3.536	2.967	5.383	68146488	1328067	51.3130	0.0000	   			1.686	172	873.050	0.000	1.813	0.000	0.0000	0.0000
3	5.792	5.383	6.892	15404750	336281	45.8090	0.0000	 V 			3.399	376	398.687	0.000	1.984	2.016	0.0000	0.0000
4	7.706	6.892	8.783	15673649	269502	58.1580	0.0000	 V 			4.852	372	402.765	0.000	1.371	1.427	0.0000	0.0000
5	9.527	8.783	10.967	6697317	140437	47.6890	0.0000	 V 			6.236	1045	143.576	0.000	1.312	1.285	0.0000	0.0000

[Peak Table(Detector B-Ch1)]
# of Peaks	3
Peak#	R.Time	I.Time	F.Time	Area	Height	A/H	Conc.	Mark	ID#	Name	k'	Plate #	Plate Ht.	Tailing	Resolution	Sep.Factor	Conc. %	Norm Conc.
1	4.761	3.492	6.642	38925329	698369	55.7370	0.0000	   			0.000	273	549.846	0.000	0.000	0.000	0.0000	0.0000
2	7.788	6.642	8.375	186096884	3933192	47.3140	0.0000	 V 			0.636	513	292.449	0.000	2.394	0.000	0.0000	0.0000
3	8.559	8.375	10.967	104155790	2120207	49.1250	0.0000	 V 			0.798	81	1848.329	0.000	0.298	1.255	0.0000	0.0000

[Peak Table(PDA-Ch1)]
# of Peaks	0

[Compound Results(Detector A)]
# of IDs	0

[Compound Results(Detector B)]
# of IDs	0

[Compound Results(PDA)]
# of IDs	0

[Group Results(Detector A)]
# of Groups	0

[Group Results(Detector B)]
# of Groups	0

[Group Results(PDA)]
# of Groups	0

[LC Chromatogram(Detector A-Ch1)]
Interval(msec)	500
# of Points	1321
Start Time(min)	0.000
End Time(min)	11.000
Intensity Units	mV
Intensity Multiplier	0.001
Wavelength(nm)	280
R.Time (min)	Intensity
0.00000	196
0.00833	196
0.01667	3
0.02500	11
0.03333	8
0.04167	11
0.05000	20
0.05833	28
0.06667	35
0.07500	41
0.08333	45
0.09167	50
0.10000	55
0.10833	58
0.11667	59
0.12500	59
0.13333	59
0.14167	58
0.15000	57
0.15833	58
0.16667	60
0.17500	65
0.18333	69
0.19167	74
0.20000	79
0.20833	84
0.21667	88
0.22500	91
0.23333	92
0.24167	93
0.25000	94
0.25833	94
0.26667	97
0.27500	100
0.28333	103
0.29167	107
0.30000	111
0.30833	113
0.31667	112
0.32500	111
0.33333	111
0.34167	113
0.35000	114
0.35833	117
0.36667	121
0.37500	124
0.38333	128
0.39167	131
0.40000	134
0.40833	137
0.41667	140
0.42500	145
0.43333	151
0.44167	156
0.45000	161
0.45833	166
0.46667	170
0.47500	174
0.48333	175
0.49167	176
0.50000	178
0.50833	182
0.51667	186
0.52500	187
0.53333	187
0.54167	186
0.55000	183
0.55833	182
0.56667	184
0.57500	186
0.58333	190
0.59167	195
0.60000	196
0.60833	196
0.61667	196
0.62500	197
0.63333	199
0.64167	200
0.65000	201
0.65833	203
0.66667	205
0.67500	207
0.68333	212
0.69167	215
0.70000	217
0.70833	220
0.71667	222
0.72500	222
0.73333	222
0.74167	220
0.75000	217
0.75833	217
0.76667	219
0.77500	221
0.78333	224
0.79167	227
0.80000	229
0.80833	232
0.81667	235
0.82500	237
0.83333	238
0.84167	240
0.85000	240
0.85833	240
0.86667	242
0.87500	245
0.88333	247
0.89167	249
0.90000	250
0.90833	251
0.91667	252
0.92500	254
0.93333	256
0.94167	258
0.95000	260
0.95833	261
0.96667	262
0.97500	264
0.98333	266
0.99167	269
1.00000	271
1.00833	272
1.01667	271
1.02500	273
1.03333	275
1.04167	279
1.05000	282
1.05833	283
1.06667	283
1.07500	282
1.08333	283
1.09167	285
1.10000	287
1.10833	289
1.11667	292
1.12500	293
1.13333	293
1.14167	297
1.15000	299
1.15833	300
1.16667	301
1.17500	302
1.18333	304
1.19167	305
1.20000	307
1.20833	308
1.21667	310
1.22500	311
1.23333	311
1.24167	313
1.25000	315
1.25833	317
1.26667	318
1.27500	318
1.28333	319
1.29167	321
1.30000	323
1.30833	326
1.31667	328
1.32500	328
1.33333	328
1.34167	328
1.35000	328
1.35833	330
1.36667	333
1.37500	335
1.38333	336
1.39167	338
1.40000	339
1.40833	340
1.41667	341
1.42500	343
1.43333	346
1.44167	347
1.45000	347
1.45833	346
1.46667	347
1.47500	347
1.48333	347
1.49167	349
1.50000	350
1.50833	351
1.51667	353
1.52500	355
1.53333	357
1.54167	360
1.55000	361
1.55833	361
1.56667	361
1.57500	359
1.58333	358
1.59167	359
1.60000	361
1.60833	363
1.61667	363
1.62500	362
1.63333	362
1.64167	363
1.65000	364
1.65833	364
1.66667	364
1.67500	365
1.68333	368
1.69167	371
1.70000	373
1.70833	373
1.71667	372
1.72500	371
1.73333	373
1.74167	373
1.75000	375
1.75833	376
1.76667	376
1.77500	375
1.78333	371
1.79167	370
1.80000	372
1.80833	376
1.81667	379
1.82500	380
1.83333	380
1.84167	381
1.85000	381
1.85833	384
1.86667	386
1.87500	388
1.88333	389
1.89167	388
1.90000	386
1.90833	387
1.91667	388
1.92500	389
1.93333	389
1.94167	388
1.95000	389
1.95833	392
1.96667	394
1.97500	393
1.98333	392
1.99167	392
2.00000	392
2.00833	391
2.01667	392
2.02500	393
2.03333	395
2.04167	396
2.05000	397
2.05833	396
2.06667	397
2.07500	397
2.08333	396
2.09167	397
2.10000	398
2.10833	399
2.11667	400
2.12500	402
2.13333	404
2.14167	404
2.15000	405
2.15833	405
2.16667	404
2.17500	404
2.18333	405
2.19167	406
2.20000	407
2.20833	407
2.21667	406
2.22500	406
2.23333	408
2.24167	409
2.25000	410
2.25833	411
2.26667	411
2.27500	410
2.28333	410
2.29167	409
2.30000	408
2.30833	408
2.31667	410
2.32500	411
2.33333	411
2.34167	412
2.35000	411
2.35833	410
2.36667	411
2.37500	413
2.38333	415
2.39167	417
2.40000	418
2.40833	419
2.41667	421
2.42500	423
2.43333	424
2.44167	424
2.45000	425
2.45833	426
2.46667	427
2.47500	425
2.48333	425
2.49167	426
2.50000	426
2.50833	425
2.51667	425
2.52500	426
2.53333	428
2.54167	428
2.55000	428
2.55833	430
2.56667	431
2.57500	434
2.58333	435
2.59167	436
2.60000	436
2.60833	436
2.61667	437
2.62500	437
2.63333	437
2.64167	438
2.65000	438
2.65833	439
2.66667	439
2.67500	439
2.68333	440
2.69167	441
2.70000	441
2.70833	443
2.71667	444
2.72500	444
2.73333	443
2.74167	441
2.75000	441
2.75833	442
2.76667	443
2.77500	444
2.78333	445
2.79167	447
2.80000	449
2.80833	453
2.81667	456
2.82500	458
2.83333	459
2.84167	461
2.85000	461
2.85833	461
2.86667	462
2.87500	464
2.88333	465
2.89167	468
2.90000	470
2.90833	472
2.91667	476
2.92500	481
2.93333	485
2.94167	489
2.95000	495
2.95833	502
2.96667	513
2.97500	530
2.98333	551
2.99167	574
3.00000	600
3.00833	634
3.01667	678
3.02500	732
3.03333	799
3.04167	880
3.05000	979
3.05833	1097
3.06667	1243
3.07500	1420
3.08333	1634
3.09167	1891
3.10000	2203
3.10833	2585
3.11667	3051
3.12500	3621
3.13333	4322
3.14167	5185
3.15000	6249
3.15833	7564
3.16667	9185
3.17500	11191
3.18333	13673
3.19167	16743
3.20000	20544
3.20833	25238
3.21667	31032
3.22500	38162
3.23333	46901
3.24167	57549
3.25000	70428
3.25833	85870
3.26667	104203
3.27500	125737
3.28333	150743
3.29167	179441
3.30000	211979
3.30833	248411
3.31667	288700
3.32500	332725
3.33333	380264
3.34167	431024
3.35000	484628
3.35833	540605
3.36667	598398
3.37500	657376
3.38333	716891
3.39167	776270
3.40000	834844
3.40833	891949
3.41667	946951
3.42500	999254
3.43333	1048322
3.44167	1093729
3.45000	1135179
3.45833	1172499
3.46667	1205601
3.47500	1234453
3.48333	1259083
3.49167	1279603
3.50000	1296212
3.50833	1309141
3.51667	1318661
3.52500	1325025
3.53333	1328505
3.54167	1329362
3.55000	1327884
3.55833	1324351
3.56667	1318999
3.57500	1312050
3.58333	1303725
3.59167	1294235
3.60000	1283759
3.60833	1272453
3.61667	1260463
3.62500	1247908
3.63333	1234890
3.64167	1221516
3.65000	1207861
3.65833	1194003
3.66667	1180015
3.67500	1165930
3.68333	1151773
3.69167	1137564
3.70000	1123357
3.70833	1109179
3.71667	1095042
3.72500	1080950
3.73333	1066907
3.74167	1052918
3.75000	1039006
3.75833	1025180
3.76667	1011453
3.77500	997837
3.78333	984342
3.79167	970960
3.80000	957700
3.80833	944567
3.81667	931584
3.82500	918770
3.83333	906121
3.84167	893634
3.85000	881295
3.85833	869116
3.86667	857113
3.87500	845298
3.88333	833672
3.89167	822227
3.90000	810960
3.90833	799864
3.91667	788944
3.92500	778201
3.93333	767629
3.94167	757232
3.95000	746999
3.95833	736930
3.96667	727016
3.97500	717258
3.98333	707664
3.99167	698232
4.00000	688953
4.00833	679820
4.01667	670830
4.02500	661982
4.03333	653276
4.04167	644715
4.05000	636299
4.05833	628028
4.06667	619898
4.07500	611905
4.08333	604051
4.09167	596340
4.10000	588772
4.10833	581347
4.11667	574058
4.12500	566897
4.13333	559866
4.14167	552969
4.15000	546210
4.15833	539586
4.16667	533096
4.17500	526729
4.18333	520482
4.19167	514354
4.20000	508344
4.20833	502451
4.21667	496676
4.22500	491012
4.23333	485456
4.24167	480000
4.25000	474645
4.25833	469387
4.26667	464225
4.27500	459156
4.28333	454175
4.29167	449273
4.30000	444443
4.30833	439690
4.31667	435013
4.32500	430405
4.33333	425867
4.34167	421392
4.35000	416974
4.35833	412613
4.36667	408310
4.37500	404067
4.38333	399879
4.39167	395749
4.40000	391672
4.40833	387641
4.41667	383658
4.42500	379724
4.43333	375841
4.44167	372008
4.45000	368220
4.45833	364476
4.46667	360775
4.47500	357117
4.48333	353509
4.49167	349946
4.50000	346430
4.50833	342957
4.51667	339529
4.52500	336146
4.53333	332808
4.54167	329516
4.55000	326272
4.55833	323072
4.56667	319913
4.57500	316797
4.58333	313723
4.59167	310691
4.60000	307703
4.60833	304755
4.61667	301846
4.62500	298972
4.63333	296129
4.64167	293320
4.65000	290544
4.65833	287800
4.66667	285090
4.67500	282410
4.68333	279760
4.69167	277141
4.70000	274554
4.70833	272000
4.71667	269483
4.72500	267003
4.73333	264560
4.74167	262154
4.75000	259784
4.75833	257456
4.76667	255177
4.77500	252946
4.78333	250768
4.79167	248640
4.80000	246565
4.80833	244549
4.81667	242594
4.82500	240702
4.83333	238874
4.84167	237111
4.85000	235415
4.85833	233787
4.86667	232227
4.87500	230735
4.88333	229310
4.89167	227951
4.90000	226655
4.90833	225418
4.91667	224240
4.92500	223117
4.93333	222046
4.94167	221025
4.95000	220046
4.95833	219105
4.96667	218198
4.97500	217321
4.98333	216468
4.99167	215632
5.00000	214810
5.00833	213996
5.01667	213183
5.02500	212366
5.03333	211545
5.04167	210712
5.05000	209861
5.05833	208991
5.06667	208100
5.07500	207183
5.08333	206237
5.09167	205260
5.10000	204249
5.10833	203207
5.11667	202131
5.12500	201019
5.13333	199872
5.14167	198690
5.15000	197474
5.15833	196227
5.16667	194950
5.17500	193644
5.18333	192309
5.19167	190951
5.20000	189576
5.20833	188185
5.21667	186781
5.22500	185369
5.23333	183953
5.24167	182539
5.25000	181130
5.25833	179737
5.26667	178364
5.27500	177018
5.28333	175705
5.29167	174433
5.30000	173207
5.30833	172041
5.31667	170946
5.32500	169930
5.33333	169001
5.34167	168168
5.35000	167444
5.35833	166841
5.36667	166374
5.37500	166051
5.38333	165886
5.39167	165893
5.40000	166086
5.40833	166476
5.41667	167079
5.42500	167906
5.43333	168971
5.44167	170285
5.45000	171860
5.45833	173707
5.46667	175835
5.47500	178249
5.48333	180955
5.49167	183959
5.50000	187262
5.50833	190862
5.51667	194755
5.52500	198935
5.53333	203391
5.54167	208111
5.55000	213082
5.55833	218284
5.56667	223696
5.57500	229296
5.58333	235060
5.59167	240957
5.60000	246955
5.60833	253022
5.61667	259125
5.62500	265230
5.63333	271300
5.64167	277299
5.65000	283195
5.65833	288952
5.66667	294530
5.67500	299899
5.68333	305032
5.69167	309897
5.70000	314468
5.70833	318720
5.71667	322636
5.72500	326198
5.73333	329384
5.74167	332185
5.75000	334594
5.75833	336606
5.76667	338213
5.77500	339418
5.78333	340229
5.79167	340644
5.80000	340672
5.80833	340323
5.81667	339609
5.82500	338539
5.83333	337126
5.84167	335389
5.85000	333342
5.85833	331001
5.86667	328388
5.87500	325521
5.88333	322413
5.89167	319086
5.90000	315556
5.90833	311842
5.91667	307961
5.92500	303934
5.93333	299771
5.94167	295494
5.95000	291119
5.95833	286653
5.96667	282113
5.97500	277518
5.98333	272879
5.99167	268207
6.00000	263514
6.00833	258808
6.01667	254097
6.02500	249395
6.03333	244709
6.04167	240046
6.05000	235411
6.05833	230812
6.06667	226254
6.07500	221743
6.08333	217284
6.09167	212880
6.10000	208536
6.10833	204257
6.11667	200040
6.12500	195890
6.13333	191809
6.14167	187801
6.15000	183865
6.15833	180002
6.16667	176214
6.17500	172500
6.18333	168861
6.19167	165295
6.20000	161804
6.20833	158387
6.21667	155044
6.22500	151778
6.23333	148584
6.24167	145462
6.25000	142412
6.25833	139434
6.26667	136527
6.27500	133688
6.28333	130917
6.29167	128215
6.30000	125576
6.30833	123002
6.31667	120492
6.32500	118045
6.33333	115659
6.34167	113332
6.35000	111063
6.35833	108852
6.36667	106700
6.37500	104604
6.38333	102564
6.39167	100578
6.40000	98645
6.40833	96762
6.41667	94930
6.42500	93150
6.43333	91419
6.44167	89736
6.45000	88098
6.45833	86507
6.46667	84960
6.47500	83457
6.48333	81996
6.49167	80575
6.50000	79197
6.50833	77858
6.51667	76558
6.52500	75297
6.53333	74073
6.54167	72885
6.55000	71732
6.55833	70614
6.56667	69531
6.57500	68479
6.58333	67459
6.59167	66474
6.60000	65516
6.60833	64588
6.61667	63689
6.62500	62821
6.63333	61980
6.64167	61167
6.65000	60380
6.65833	59618
6.66667	58884
6.67500	58176
6.68333	57494
6.69167	56836
6.70000	56205
6.70833	55598
6.71667	55016
6.72500	54457
6.73333	53924
6.74167	53418
6.75000	52937
6.75833	52479
6.76667	52046
6.77500	51638
6.78333	51255
6.79167	50897
6.80000	50564
6.80833	50260
6.81667	49986
6.82500	49738
6.83333	49515
6.84167	49317
6.85000	49144
6.85833	48998
6.86667	48880
6.87500	48793
6.88333	48737
6.89167	48711
6.90000	48716
6.90833	48752
6.91667	48820
6.92500	48920
6.93333	49054
6.94167	49221
6.95000	49421
6.95833	49657
6.96667	49930
6.97500	50240
6.98333	50587
6.99167	50971
7.00000	51397
7.00833	51864
7.01667	52376
7.02500	52933
7.03333	53536
7.04167	54187
7.05000	54885
7.05833	55633
7.06667	56435
7.07500	57291
7.08333	58207
7.09167	59183
7.10000	60221
7.10833	61323
7.11667	62492
7.12500	63731
7.13333	65044
7.14167	66434
7.15000	67904
7.15833	69454
7.16667	71092
7.17500	72818
7.18333	74636
7.19167	76552
7.20000	78567
7.20833	80684
7.21667	82905
7.22500	85234
7.23333	87676
7.24167	90233
7.25000	92909
7.25833	95707
7.26667	98631
7.27500	101684
7.28333	104868
7.29167	108184
7.30000	111633
7.30833	115217
7.31667	118936
7.32500	122790
7.33333	126780
7.34167	130902
7.35000	135156
7.35833	139536
7.36667	144036
7.37500	148646
7.38333	153359
7.39167	158166
7.40000	163056
7.40833	168015
7.41667	173025
7.42500	178071
7.43333	183137
7.44167	188206
7.45000	193260
7.45833	198279
7.46667	203243
7.47500	208135
7.48333	212934
7.49167	217623
7.50000	222184
7.50833	226601
7.51667	230863
7.52500	234955
7.53333	238866
7.54167	242586
7.55000	246106
7.55833	249423
7.56667	252539
7.57500	255452
7.58333	258155
7.59167	260653
7.60000	262949
7.60833	265048
7.61667	266955
7.62500	268673
7.63333	270205
7.64167	271559
7.65000	272740
7.65833	273751
7.66667	274597
7.67500	275282
7.68333	275812
7.69167	276191
7.70000	276426
7.70833	276518
7.71667	276470
7.72500	276288
7.73333	275979
7.74167	275547
7.75000	274997
7.75833	274333
7.76667	273559
7.77500	272680
7.78333	271702
7.79167	270629
7.80000	269465
7.80833	268211
7.81667	266870
7.82500	265447
7.83333	263946
7.84167	262372
7.85000	260725
7.85833	259005
7.86667	257220
7.87500	255370
7.88333	253459
7.89167	251489
7.90000	249466
7.90833	247392
7.91667	245269
7.92500	243101
7.93333	240892
7.94167	238648
7.95000	236373
7.95833	234069
7.96667	231740
7.97500	229390
7.98333	227025
7.99167	224645
8.00000	222251
8.00833	219851
8.01667	217444
8.02500	215032
8.03333	212619
8.04167	210202
8.05000	207783
8.05833	205366
8.06667	202951
8.07500	200537
8.08333	198125
8.09167	195718
8.10000	193309
8.10833	190899
8.11667	188489
8.12500	186075
8.13333	183659
8.14167	181238
8.15000	178810
8.15833	176376
8.16667	173932
8.17500	171475
8.18333	169002
8.19167	166514
8.20000	164011
8.20833	161489
8.21667	158948
8.22500	156388
8.23333	153808
8.24167	151207
8.25000	148581
8.25833	145934
8.26667	143266
8.27500	140576
8.28333	137866
8.29167	135136
8.30000	132386
8.30833	129620
8.31667	126842
8.32500	124051
8.33333	121249
8.34167	118440
8.35000	115628
8.35833	112817
8.36667	110013
8.37500	107220
8.38333	104440
8.39167	101675
8.40000	98932
8.40833	96214
8.41667	93528
8.42500	90873
8.43333	88257
8.44167	85681
8.45000	83148
8.45833	80663
8.46667	78228
8.47500	75850
8.48333	73529
8.49167	71266
8.50000	69062
8.50833	66920
8.51667	64842
8.52500	62831
8.53333	60889
8.54167	59015
8.55000	57209
8.55833	55472
8.56667	53804
8.57500	52203
8.58333	50673
8.59167	49214
8.60000	47823
8.60833	46500
8.61667	45246
8.62500	44059
8.63333	42941
8.64167	41887
8.65000	40899
8.65833	39978
8.66667	39122
8.67500	38331
8.68333	37604
8.69167	36941
8.70000	36341
8.70833	35804
8.71667	35329
8.72500	34912
8.73333	34554
8.74167	34255
8.75000	34012
8.75833	33826
8.76667	33695
8.77500	33617
8.78333	33590
8.79167	33610
8.80000	33680
8.80833	33797
8.81667	33956
8.82500	34153
8.83333	34386
8.84167	34654
8.85000	34957
8.85833	35290
8.86667	35651
8.87500	36037
8.88333	36445
8.89167	36875
8.90000	37325
8.90833	37793
8.91667	38279
8.92500	38781
8.93333	39300
8.94167	39831
8.95000	40375
8.95833	40934
8.96667	41508
8.97500	42100
8.98333	42710
8.99167	43342
9.00000	43996
9.00833	44675
9.01667	45381
9.02500	46120
9.03333	46898
9.04167	47714
9.05000	48572
9.05833	49478
9.06667	50434
9.07500	51446
9.08333	52518
9.09167	53655
9.10000	54859
9.10833	56134
9.11667	57483
9.12500	58908
9.13333	60412
9.14167	61998
9.15000	63665
9.15833	65414
9.16667	67248
9.17500	69167
9.18333	71162
9.19167	73237
9.20000	75389
9.20833	77614
9.21667	79908
9.22500	82264
9.23333	84680
9.24167	87147
9.25000	89662
9.25833	92217
9.26667	94803
9.27500	97414
9.28333	100044
9.29167	102682
9.30000	105324
9.30833	107958
9.31667	110575
9.32500	113165
9.33333	115723
9.34167	118238
9.35000	120704
9.35833	123113
9.36667	125455
9.37500	127722
9.38333	129908
9.39167	132006
9.40000	134008
9.40833	135912
9.41667	137710
9.42500	139394
9.43333	140964
9.44167	142418
9.45000	143749
9.45833	144955
9.46667	146032
9.47500	146982
9.48333	147801
9.49167	148489
9.50000	149043
9.50833	149467
9.51667	149759
9.52500	149920
9.53333	149952
9.54167	149854
9.55000	149632
9.55833	149289
9.56667	148827
9.57500	148249
9.58333	147557
9.59167	146753
9.60000	145842
9.60833	144832
9.61667	143726
9.62500	142526
9.63333	141236
9.64167	139863
9.65000	138410
9.65833	136885
9.66667	135287
9.67500	133625
9.68333	131902
9.69167	130123
9.70000	128293
9.70833	126419
9.71667	124505
9.72500	122553
9.73333	120567
9.74167	118554
9.75000	116516
9.75833	114459
9.76667	112387
9.77500	110303
9.78333	108209
9.79167	106107
9.80000	104006
9.80833	101908
9.81667	99816
9.82500	97730
9.83333	95655
9.84167	93592
9.85000	91543
9.85833	89513
9.86667	87504
9.87500	85514
9.88333	83547
9.89167	81605
9.90000	79690
9.90833	77801
9.91667	75942
9.92500	74115
9.93333	72319
9.94167	70554
9.95000	68819
9.95833	67119
9.96667	65452
9.97500	63821
9.98333	62224
9.99167	60662
10.00000	59136
10.00833	57645
10.01667	56188
10.02500	54769
10.03333	53383
10.04167	52033
10.05000	50718
10.05833	49437
10.06667	48193
10.07500	46982
10.08333	45804
10.09167	44659
10.10000	43546
10.10833	42467
10.11667	41419
10.12500	40403
10.13333	39417
10.14167	38462
10.15000	37539
10.15833	36644
10.16667	35775
10.17500	34937
10.18333	34127
10.19167	33342
10.20000	32582
10.20833	31849
10.21667	31140
10.22500	30456
10.23333	29800
10.24167	29164
10.25000	28549
10.25833	27957
10.26667	27386
10.27500	26836
10.28333	26305
10.29167	25794
10.30000	25303
10.30833	24829
10.31667	24371
10.32500	23931
10.33333	23508
10.34167	23100
10.35000	22708
10.35833	22332
10.36667	21970
10.37500	21621
10.38333	21284
10.39167	20959
10.40000	20643
10.40833	20338
10.41667	20045
10.42500	19763
10.43333	19491
10.44167	19230
10.45000	18979
10.45833	18734
10.46667	18497
10.47500	18270
10.48333	18050
10.49167	17838
10.50000	17633
10.50833	17433
10.51667	17237
10.52500	17048
10.53333	16862
10.54167	16682
10.55000	16507
10.55833	16339
10.56667	16175
10.57500	16015
10.58333	15859
10.59167	15706
10.60000	15558
10.60833	15411
10.61667	15269
10.62500	15130
10.63333	14994
10.64167	14862
10.65000	14735
10.65833	14609
10.66667	14484
10.67500	14360
10.68333	14240
10.69167	14124
10.70000	14010
10.70833	13897
10.71667	13785
10.72500	13676
10.73333	13569
10.74167	13465
10.75000	13363
10.75833	13264
10.76667	13166
10.77500	13072
10.78333	12979
10.79167	12886
10.80000	12795
10.80833	12708
10.81667	12623
10.82500	12540
10.83333	12459
10.84167	12379
10.85000	12300
10.85833	12225
10.86667	12155
10.87500	12086
10.88333	12019
10.89167	11955
10.90000	11893
10.90833	11835
10.91667	11779
10.92500	11724
10.93333	11671
10.94167	11622
10.95000	11575
10.95833	11532
10.96667	11491
10.97500	11453
10.98333	11417
10.99167	11384
11.00000	11352

[LC Chromatogram(Detector B-Ch1)]
Interval(msec)	500
# of Points	1321
Start Time(min)	0.000
End Time(min)	11.000
Intensity Units	mV
Intensity Multiplier	0.001
Ex. Wavelength(nm)	482
Em. Wavelength(nm)	520
R.Time (min)	Intensity
0.00000	-783
0.00833	-783
0.01667	-133
0.02500	-24
0.03333	-23
0.04167	-16
0.05000	-32
0.05833	-47
0.06667	-59
0.07500	-70
0.08333	-82
0.09167	-95
0.10000	-111
0.10833	-127
0.11667	-140
0.12500	-153
0.13333	-165
0.14167	-178
0.15000	-189
0.15833	-202
0.16667	-215
0.17500	-227
0.18333	-238
0.19167	-252
0.20000	-264
0.20833	-278
0.21667	-291
0.22500	-305
0.23333	-319
0.24167	-332
0.25000	-346
0.25833	-359
0.26667	-373
0.27500	-389
0.28333	-405
0.29167	-421
0.30000	-435
0.30833	-450
0.31667	-465
0.32500	-480
0.33333	-496
0.34167	-512
0.35000	-527
0.35833	-540
0.36667	-552
0.37500	-566
0.38333	-578
0.39167	-590
0.40000	-602
0.40833	-614
0.41667	-627
0.42500	-638
0.43333	-647
0.44167	-656
0.45000	-668
0.45833	-680
0.46667	-690
0.47500	-703
0.48333	-714
0.49167	-725
0.50000	-734
0.50833	-747
0.51667	-759
0.52500	-770
0.53333	-781
0.54167	-790
0.55000	-802
0.55833	-813
0.56667	-823
0.57500	-833
0.58333	-845
0.59167	-857
0.60000	-868
0.60833	-881
0.61667	-894
0.62500	-904
0.63333	-915
0.64167	-926
0.65000	-939
0.65833	-951
0.66667	-963
0.67500	-975
0.68333	-988
0.69167	-999
0.70000	-1007
0.70833	-1016
0.71667	-1026
0.72500	-1037
0.73333	-1047
0.74167	-1056
0.75000	-1067
0.75833	-1077
0.76667	-1085
0.77500	-1095
0.78333	-1105
0.79167	-1115
0.80000	-1125
0.80833	-1135
0.81667	-1144
0.82500	-1154
0.83333	-1164
0.84167	-1174
0.85000	-1185
0.85833	-1194
0.86667	-1204
0.87500	-1217
0.88333	-1229
0.89167	-1239
0.90000	-1248
0.90833	-1259
0.91667	-1271
0.92500	-1281
0.93333	-1289
0.94167	-1300
0.95000	-1312
0.95833	-1321
0.96667	-1330
0.97500	-1341
0.98333	-1353
0.99167	-1365
1.00000	-1374
1.00833	-1385
1.01667	-1397
1.02500	-1408
1.03333	-1417
1.04167	-1425
1.05000	-1436
1.05833	-1448
1.06667	-1459
1.07500	-1470
1.08333	-1480
1.09167	-1491
1.10000	-1501
1.10833	-1511
1.11667	-1521
1.12500	-1534
1.13333	-1543
1.14167	-1552
1.15000	-1562
1.15833	-1575
1.16667	-1585
1.17500	-1596
1.18333	-1606
1.19167	-1614
1.20000	-1623
1.20833	-1634
1.21667	-1643
1.22500	-1652
1.23333	-1661
1.24167	-1672
1.25000	-1680
1.25833	-1692
1.26667	-1702
1.27500	-1712
1.28333	-1722
1.29167	-1734
1.30000	-1745
1.30833	-1754
1.31667	-1762
1.32500	-1770
1.33333	-1777
1.34167	-1783
1.35000	-1791
1.35833	-1799
1.36667	-1807
1.37500	-1818
1.38333	-1827
1.39167	-1835
1.40000	-1844
1.40833	-1854
1.41667	-1862
1.42500	-1870
1.43333	-1880
1.44167	-1890
1.45000	-1898
1.45833	-1906
1.46667	-1915
1.47500	-1923
1.48333	-1930
1.49167	-1937
1.50000	-1943
1.50833	-1949
1.51667	-1957
1.52500	-1966
1.53333	-1974
1.54167	-1981
1.55000	-1989
1.55833	-1996
1.56667	-2005
1.57500	-2014
1.58333	-2021
1.59167	-2029
1.60000	-2038
1.60833	-2046
1.61667	-2053
1.62500	-2061
1.63333	-2069
1.64167	-2076
1.65000	-2085
1.65833	-2094
1.66667	-2101
1.67500	-2107
1.68333	-2113
1.69167	-2120
1.70000	-2127
1.70833	-2136
1.71667	-2144
1.72500	-2150
1.73333	-2155
1.74167	-2162
1.75000	-2170
1.75833	-2177
1.76667	-2183
1.77500	-2188
1.78333	-2194
1.79167	-2201
1.80000	-2209
1.80833	-2218
1.81667	-2227
1.82500	-2235
1.83333	-2241
1.84167	-2247
1.85000	-2252
1.85833	-2259
1.86667	-2268
1.87500	-2275
1.88333	-2282
1.89167	-2287
1.90000	-2292
1.90833	-2299
1.91667	-2307
1.92500	-2314
1.93333	-2321
1.94167	-2330
1.95000	-2337
1.95833	-2342
1.96667	-2348
1.97500	-2354
1.98333	-2362
1.99167	-2370
2.00000	-2378
2.00833	-2385
2.01667	-2392
2.02500	-2400
2.03333	-2408
2.04167	-2412
2.05000	-2416
2.05833	-2422
2.06667	-2430
2.07500	-2437
2.08333	-2445
2.09167	-2452
2.10000	-2459
2.10833	-2466
2.11667	-2473
2.12500	-2479
2.13333	-2484
2.14167	-2489
2.15000	-2495
2.15833	-2501
2.16667	-2506
2.17500	-2513
2.18333	-2519
2.19167	-2523
2.20000	-2528
2.20833	-2534
2.21667	-2542
2.22500	-2550
2.23333	-2556
2.24167	-2562
2.25000	-2566
2.25833	-2571
2.26667	-2577
2.27500	-2583
2.28333	-2590
2.29167	-2597
2.30000	-2606
2.30833	-2613
2.31667	-2621
2.32500	-2628
2.33333	-2632
2.34167	-2635
2.35000	-2640
2.35833	-2646
2.36667	-2652
2.37500	-2659
2.38333	-2664
2.39167	-2670
2.40000	-2676
2.40833	-2682
2.41667	-2687
2.42500	-2693
2.43333	-2699
2.44167	-2703
2.45000	-2708
2.45833	-2712
2.46667	-2718
2.47500	-2723
2.48333	-2728
2.49167	-2733
2.50000	-2741
2.50833	-2748
2.51667	-2754
2.52500	-2759
2.53333	-2763
2.54167	-2769
2.55000	-2775
2.55833	-2780
2.56667	-2785
2.57500	-2791
2.58333	-2797
2.59167	-2802
2.60000	-2808
2.60833	-2812
2.61667	-2818
2.62500	-2823
2.63333	-2829
2.64167	-2834
2.65000	-2841
2.65833	-2846
2.66667	-2852
2.67500	-2855
2.68333	-2859
2.69167	-2864
2.70000	-2868
2.70833	-2873
2.71667	-2878
2.72500	-2882
2.73333	-2889
2.74167	-2897
2.75000	-2903
2.75833	-2909
2.76667	-2916
2.77500	-2921
2.78333	-2927
2.79167	-2931
2.80000	-2936
2.80833	-2941
2.81667	-2946
2.82500	-2950
2.83333	-2954
2.84167	-2958
2.85000	-2964
2.85833	-2969
2.86667	-2976
2.87500	-2981
2.88333	-2985
2.89167	-2991
2.90000	-2995
2.90833	-3001
2.91667	-3006
2.92500	-3012
2.93333	-3017
2.94167	-3020
2.95000	-3025
2.95833	-3031
2.96667	-3037
2.97500	-3042
2.98333	-3047
2.99167	-3050
3.00000	-3053
3.00833	-3056
3.01667	-3060
3.02500	-3066
3.03333	-3072
3.04167	-3076
3.05000	-3081
3.05833	-3086
3.06667	-3088
3.07500	-3092
3.08333	-3097
3.09167	-3103
3.10000	-3107
3.10833	-3111
3.11667	-3116
3.12500	-3120
3.13333	-3123
3.14167	-3129
3.15000	-3136
3.15833	-3141
3.16667	-3144
3.17500	-3146
3.18333	-3150
3.19167	-3155
3.20000	-3160
3.20833	-3164
3.21667	-3168
3.22500	-3173
3.23333	-3178
3.24167	-3183
3.25000	-3189
3.25833	-3194
3.26667	-3200
3.27500	-3204
3.28333	-3208
3.29167	-3212
3.30000	-3216
3.30833	-3219
3.31667	-3224
3.32500	-3225
3.33333	-3226
3.34167	-3227
3.35000	-3229
3.35833	-3232
3.36667	-3233
3.37500	-3233
3.38333	-3233
3.39167	-3231
3.40000	-3228
3.40833	-3221
3.41667	-3211
3.42500	-3197
3.43333	-3177
3.44167	-3154
3.45000	-3126
3.45833	-3093
3.46667	-3052
3.47500	-3000
3.48333	-2935
3.49167	-2857
3.50000	-2765
3.50833	-2653
3.51667	-2521
3.52500	-2364
3.53333	-2182
3.54167	-1970
3.55000	-1724
3.55833	-1443
3.56667	-1125
3.57500	-769
3.58333	-368
3.59167	78
3.60000	566
3.60833	1099
3.61667	1678
3.62500	2301
3.63333	2967
3.64167	3675
3.65000	4419
3.65833	5195
3.66667	6004
3.67500	6838
3.68333	7690
3.69167	8558
3.70000	9438
3.70833	10316
3.71667	11190
3.72500	12057
3.73333	12909
3.74167	13746
3.75000	14566
3.75833	15367
3.76667	16145
3.77500	16899
3.78333	17625
3.79167	18325
3.80000	18996
3.80833	19642
3.81667	20265
3.82500	20866
3.83333	21445
3.84167	22003
3.85000	22542
3.85833	23069
3.86667	23578
3.87500	24078
3.88333	24570
3.89167	25060
3.90000	25552
3.90833	26048
3.91667	26555
3.92500	27075
3.93333	27610
3.94167	28164
3.95000	28744
3.95833	29357
3.96667	30005
3.97500	30689
3.98333	31411
3.99167	32175
4.00000	32984
4.00833	33844
4.01667	34756
4.02500	35721
4.03333	36753
4.04167	37842
4.05000	38986
4.05833	40190
4.06667	41457
4.07500	42787
4.08333	44179
4.09167	45632
4.10000	47152
4.10833	48735
4.11667	50380
4.12500	52088
4.13333	53862
4.14167	55702
4.15000	57600
4.15833	59559
4.16667	61571
4.17500	63643
4.18333	65770
4.19167	67958
4.20000	70214
4.20833	72530
4.21667	74910
4.22500	77353
4.23333	79867
4.24167	82457
4.25000	85129
4.25833	87902
4.26667	90787
4.27500	93785
4.28333	96901
4.29167	100161
4.30000	103591
4.30833	107209
4.31667	111041
4.32500	115117
4.33333	119468
4.34167	124121
4.35000	129115
4.35833	134477
4.36667	140271
4.37500	146523
4.38333	153250
4.39167	160495
4.40000	168282
4.40833	176651
4.41667	185640
4.42500	195276
4.43333	205569
4.44167	216534
4.45000	228177
4.45833	240513
4.46667	253546
4.47500	267254
4.48333	281622
4.49167	296616
4.50000	312196
4.50833	328314
4.51667	344946
4.52500	362045
4.53333	379528
4.54167	397309
4.55000	415302
4.55833	433408
4.56667	451562
4.57500	469706
4.58333	487754
4.59167	505579
4.60000	523106
4.60833	540213
4.61667	556826
4.62500	572868
4.63333	588252
4.64167	602890
4.65000	616706
4.65833	629623
4.66667	641637
4.67500	652692
4.68333	662751
4.69167	671785
4.70000	679768
4.70833	686709
4.71667	692622
4.72500	697530
4.73333	701446
4.74167	704409
4.75000	706445
4.75833	707598
4.76667	707881
4.77500	707352
4.78333	706018
4.79167	703952
4.80000	701224
4.80833	697884
4.81667	693953
4.82500	689466
4.83333	684445
4.84167	678949
4.85000	673047
4.85833	666790
4.86667	660214
4.87500	653346
4.88333	646213
4.89167	638836
4.90000	631237
4.90833	623472
4.91667	615566
4.92500	607527
4.93333	599389
4.94167	591143
4.95000	582826
4.95833	574462
4.96667	566056
4.97500	557664
4.98333	549274
4.99167	540900
5.00000	532553
5.00833	524242
5.01667	515982
5.02500	507782
5.03333	499645
5.04167	491600
5.05000	483621
5.05833	475740
5.06667	467940
5.07500	460230
5.08333	452610
5.09167	445077
5.10000	437657
5.10833	430344
5.11667	423142
5.12500	416040
5.13333	409043
5.14167	402140
5.15000	395338
5.15833	388655
5.16667	382078
5.17500	375603
5.18333	369219
5.19167	362926
5.20000	356750
5.20833	350687
5.21667	344739
5.22500	338910
5.23333	333196
5.24167	327592
5.25000	322099
5.25833	316721
5.26667	311460
5.27500	306312
5.28333	301270
5.29167	296327
5.30000	291487
5.30833	286753
5.31667	282132
5.32500	277607
5.33333	273184
5.34167	268873
5.35000	264655
5.35833	260541
5.36667	256523
5.37500	252593
5.38333	248759
5.39167	245014
5.40000	241360
5.40833	237797
5.41667	234317
5.42500	230924
5.43333	227616
5.44167	224397
5.45000	221270
5.45833	218210
5.46667	215229
5.47500	212326
5.48333	209488
5.49167	206709
5.50000	204011
5.50833	201386
5.51667	198825
5.52500	196330
5.53333	193908
5.54167	191542
5.55000	189247
5.55833	187026
5.56667	184867
5.57500	182771
5.58333	180734
5.59167	178748
5.60000	176813
5.60833	174943
5.61667	173127
5.62500	171366
5.63333	169670
5.64167	168026
5.65000	166438
5.65833	164914
5.66667	163441
5.67500	162013
5.68333	160635
5.69167	159312
5.70000	158044
5.70833	156831
5.71667	155658
5.72500	154527
5.73333	153439
5.74167	152391
5.75000	151380
5.75833	150421
5.76667	149499
5.77500	148620
5.78333	147777
5.79167	146966
5.80000	146191
5.80833	145440
5.81667	144715
5.82500	144028
5.83333	143374
5.84167	142753
5.85000	142166
5.85833	141605
5.86667	141062
5.87500	140545
5.88333	140060
5.89167	139604
5.90000	139167
5.90833	138753
5.91667	138356
5.92500	137979
5.93333	137616
5.94167	137274
5.95000	136953
5.95833	136653
5.96667	136363
5.97500	136094
5.98333	135833
5.99167	135578
6.00000	135339
6.00833	135112
6.01667	134893
6.02500	134673
6.03333	134455
6.04167	134245
6.05000	134043
6.05833	133844
6.06667	133642
6.07500	133444
6.08333	133240
6.09167	133035
6.10000	132823
6.10833	132611
6.11667	132386
6.12500	132164
6.13333	131945
6.14167	131716
6.15000	131472
6.15833	131221
6.16667	130974
6.17500	130718
6.18333	130461
6.19167	130191
6.20000	129918
6.20833	129630
6.21667	129333
6.22500	129034
6.23333	128723
6.24167	128410
6.25000	128092
6.25833	127773
6.26667	127444
6.27500	127107
6.28333	126771
6.29167	126431
6.30000	126083
6.30833	125734
6.31667	125381
6.32500	125031
6.33333	124676
6.34167	124318
6.35000	123962
6.35833	123596
6.36667	123223
6.37500	122854
6.38333	122494
6.39167	122123
6.40000	121758
6.40833	121400
6.41667	121041
6.42500	120684
6.43333	120322
6.44167	119969
6.45000	119627
6.45833	119286
6.46667	118948
6.47500	118620
6.48333	118300
6.49167	117988
6.50000	117686
6.50833	117397
6.51667	117121
6.52500	116860
6.53333	116614
6.54167	116382
6.55000	116154
6.55833	115945
6.56667	115748
6.57500	115565
6.58333	115405
6.59167	115270
6.60000	115148
6.60833	115048
6.61667	114961
6.62500	114906
6.63333	114871
6.64167	114861
6.65000	114878
6.65833	114924
6.66667	114997
6.67500	115091
6.68333	115211
6.69167	115366
6.70000	115550
6.70833	115770
6.71667	116032
6.72500	116328
6.73333	116662
6.74167	117039
6.75000	117460
6.75833	117921
6.76667	118418
6.77500	118970
6.78333	119569
6.79167	120227
6.80000	120942
6.80833	121710
6.81667	122539
6.82500	123433
6.83333	124393
6.84167	125427
6.85000	126543
6.85833	127738
6.86667	129012
6.87500	130365
6.88333	131818
6.89167	133368
6.90000	135022
6.90833	136779
6.91667	138646
6.92500	140634
6.93333	142758
6.94167	145021
6.95000	147419
6.95833	149968
6.96667	152689
6.97500	155587
6.98333	158669
6.99167	161943
7.00000	165432
7.00833	169163
7.01667	173141
7.02500	177388
7.03333	181940
7.04167	186803
7.05000	192003
7.05833	197575
7.06667	203517
7.07500	209882
7.08333	216711
7.09167	224022
7.10000	231860
7.10833	240273
7.11667	249297
7.12500	258977
7.13333	269365
7.14167	280526
7.15000	292509
7.15833	305381
7.16667	319180
7.17500	333982
7.18333	349861
7.19167	366901
7.20000	385186
7.20833	404809
7.21667	425871
7.22500	448458
7.23333	472682
7.24167	498606
7.25000	526334
7.25833	555960
7.26667	587535
7.27500	621111
7.28333	656749
7.29167	694538
7.30000	734522
7.30833	776708
7.31667	821122
7.32500	867820
7.33333	916787
7.34167	968002
7.35000	1021547
7.35833	1077414
7.36667	1135577
7.37500	1196019
7.38333	1258672
7.39167	1323452
7.40000	1390310
7.40833	1459167
7.41667	1529880
7.42500	1602318
7.43333	1676349
7.44167	1751798
7.45000	1828494
7.45833	1906258
7.46667	1984899
7.47500	2064187
7.48333	2144002
7.49167	2224105
7.50000	2304247
7.50833	2384208
7.51667	2463850
7.52500	2542970
7.53333	2621493
7.54167	2699221
7.55000	2775873
7.55833	2851236
7.56667	2925170
7.57500	2997570
7.58333	3068208
7.59167	3136979
7.60000	3203675
7.60833	3268137
7.61667	3330282
7.62500	3389982
7.63333	3447041
7.64167	3501384
7.65000	3552950
7.65833	3601616
7.66667	3647295
7.67500	3690020
7.68333	3729789
7.69167	3766514
7.70000	3800195
7.70833	3830819
7.71667	3858321
7.72500	3882793
7.73333	3904262
7.74167	3922746
7.75000	3938207
7.75833	3950686
7.76667	3960224
7.77500	3966876
7.78333	3970853
7.79167	3972188
7.80000	3970876
7.80833	3966892
7.81667	3960367
7.82500	3951400
7.83333	3940116
7.84167	3926606
7.85000	3910963
7.85833	3893197
7.86667	3873416
7.87500	3851763
7.88333	3828282
7.89167	3803040
7.90000	3776228
7.90833	3747819
7.91667	3717994
7.92500	3686731
7.93333	3654140
7.94167	3620259
7.95000	3585215
7.95833	3549127
7.96667	3512071
7.97500	3474041
7.98333	3435156
7.99167	3395418
8.00000	3354982
8.00833	3313882
8.01667	3272222
8.02500	3230041
8.03333	3187430
8.04167	3144501
8.05000	3101306
8.05833	3057923
8.06667	3014456
8.07500	2971048
8.08333	2927759
8.09167	2884645
8.10000	2841839
8.10833	2799393
8.11667	2757419
8.12500	2716005
8.13333	2675245
8.14167	2635226
8.15000	2596063
8.15833	2557821
8.16667	2520667
8.17500	2484694
8.18333	2449931
8.19167	2416448
8.20000	2384280
8.20833	2353543
8.21667	2324280
8.22500	2296612
8.23333	2270582
8.24167	2246142
8.25000	2223353
8.25833	2202190
8.26667	2182697
8.27500	2164922
8.28333	2148834
8.29167	2134363
8.30000	2121551
8.30833	2110383
8.31667	2100808
8.32500	2092761
8.33333	2086219
8.34167	2081056
8.35000	2077239
8.35833	2074756
8.36667	2073494
8.37500	2073391
8.38333	2074331
8.39167	2076238
8.40000	2079008
8.40833	2082527
8.41667	2086770
8.42500	2091592
8.43333	2096873
8.44167	2102516
8.45000	2108437
8.45833	2114547
8.46667	2120710
8.47500	2126879
8.48333	2132916
8.49167	2138710
8.50000	2144194
8.50833	2149278
8.51667	2153875
8.52500	2157867
8.53333	2161159
8.54167	2163766
8.55000	2165637
8.55833	2166636
8.56667	2166721
8.57500	2165865
8.58333	2164007
8.59167	2161186
8.60000	2157355
8.60833	2152470
8.61667	2146487
8.62500	2139374
8.63333	2131138
8.64167	2121763
8.65000	2111247
8.65833	2099610
8.66667	2086886
8.67500	2073067
8.68333	2058175
8.69167	2042238
8.70000	2025239
8.70833	2007258
8.71667	1988272
8.72500	1968356
8.73333	1947606
8.74167	1926036
8.75000	1903644
8.75833	1880494
8.76667	1856664
8.77500	1832198
8.78333	1807130
8.79167	1781551
8.80000	1755561
8.80833	1729219
8.81667	1702553
8.82500	1675667
8.83333	1648656
8.84167	1621543
8.85000	1594416
8.85833	1567356
8.86667	1540397
8.87500	1513623
8.88333	1487134
8.89167	1460955
8.90000	1435095
8.90833	1409667
8.91667	1384672
8.92500	1360125
8.93333	1336125
8.94167	1312728
8.95000	1289898
8.95833	1267687
8.96667	1246078
8.97500	1225114
8.98333	1204801
8.99167	1185195
9.00000	1166317
9.00833	1148171
9.01667	1130725
9.02500	1113949
9.03333	1097848
9.04167	1082412
9.05000	1067657
9.05833	1053557
9.06667	1040060
9.07500	1027144
9.08333	1014811
9.09167	1003015
9.10000	991720
9.10833	980937
9.11667	970635
9.12500	960734
9.13333	951220
9.14167	942094
9.15000	933313
9.15833	924852
9.16667	916684
9.17500	908768
9.18333	901048
9.19167	893522
9.20000	886157
9.20833	878922
9.21667	871791
9.22500	864735
9.23333	857778
9.24167	850891
9.25000	843985
9.25833	837061
9.26667	830158
9.27500	823247
9.28333	816276
9.29167	809252
9.30000	802175
9.30833	794981
9.31667	787674
9.32500	780249
9.33333	772708
9.34167	765052
9.35000	757288
9.35833	749424
9.36667	741462
9.37500	733356
9.38333	725116
9.39167	716774
9.40000	708323
9.40833	699772
9.41667	691117
9.42500	682390
9.43333	673574
9.44167	664673
9.45000	655713
9.45833	646684
9.46667	637598
9.47500	628479
9.48333	619341
9.49167	610193
9.50000	601037
9.50833	591873
9.51667	582721
9.52500	573566
9.53333	564429
9.54167	555306
9.55000	546208
9.55833	537140
9.56667	528094
9.57500	519110
9.58333	510194
9.59167	501324
9.60000	492525
9.60833	483813
9.61667	475179
9.62500	466645
9.63333	458241
9.64167	449940
9.65000	441743
9.65833	433649
9.66667	425665
9.67500	417807
9.68333	410090
9.69167	402502
9.70000	395034
9.70833	387714
9.71667	380539
9.72500	373505
9.73333	366602
9.74167	359856
9.75000	353258
9.75833	346796
9.76667	340464
9.77500	334265
9.78333	328202
9.79167	322287
9.80000	316524
9.80833	310901
9.81667	305392
9.82500	300009
9.83333	294760
9.84167	289629
9.85000	284609
9.85833	279697
9.86667	274903
9.87500	270216
9.88333	265651
9.89167	261193
9.90000	256836
9.90833	252575
9.91667	248419
9.92500	244370
9.93333	240415
9.94167	236547
9.95000	232764
9.95833	229066
9.96667	225455
9.97500	221938
9.98333	218499
9.99167	215143
10.00000	211872
10.00833	208683
10.01667	205556
10.02500	202498
10.03333	199514
10.04167	196595
10.05000	193728
10.05833	190924
10.06667	188192
10.07500	185522
10.08333	182913
10.09167	180361
10.10000	177863
10.10833	175415
10.11667	173012
10.12500	170659
10.13333	168359
10.14167	166102
10.15000	163888
10.15833	161725
10.16667	159605
10.17500	157520
10.18333	155476
10.19167	153481
10.20000	151531
10.20833	149621
10.21667	147755
10.22500	145921
10.23333	144120
10.24167	142366
10.25000	140650
10.25833	138968
10.26667	137329
10.27500	135728
10.28333	134157
10.29167	132608
10.30000	131101
10.30833	129628
10.31667	128189
10.32500	126774
10.33333	125398
10.34167	124050
10.35000	122725
10.35833	121431
10.36667	120161
10.37500	118916
10.38333	117699
10.39167	116508
10.40000	115339
10.40833	114190
10.41667	113070
10.42500	111970
10.43333	110892
10.44167	109838
10.45000	108795
10.45833	107773
10.46667	106779
10.47500	105810
10.48333	104859
10.49167	103920
10.50000	102997
10.50833	102092
10.51667	101208
10.52500	100340
10.53333	99481
10.54167	98636
10.55000	97813
10.55833	97008
10.56667	96217
10.57500	95434
10.58333	94671
10.59167	93926
10.60000	93203
10.60833	92493
10.61667	91794
10.62500	91102
10.63333	90418
10.64167	89743
10.65000	89083
10.65833	88438
10.66667	87804
10.67500	87176
10.68333	86562
10.69167	85957
10.70000	85357
10.70833	84766
10.71667	84188
10.72500	83623
10.73333	83070
10.74167	82516
10.75000	81972
10.75833	81439
10.76667	80913
10.77500	80394
10.78333	79888
10.79167	79381
10.80000	78883
10.80833	78387
10.81667	77899
10.82500	77426
10.83333	76951
10.84167	76472
10.85000	75997
10.85833	75528
10.86667	75066
10.87500	74612
10.88333	74169
10.89167	73730
10.90000	73290
10.90833	72850
10.91667	72416
10.92500	71999
10.93333	71582
10.94167	71161
10.95000	70751
10.95833	70356
10.96667	69970
10.97500	69589
10.98333	69208
10.99167	68830
11.00000	68456

[LC Status Trace(Pump A Pressure)]
Interval(msec)	1000
# of Points	661
Start Time(min)	0.000
End Time(min)	11.000
Intensity Units	kgf/cm2
Intensity Multiplier	1
R.Time (min)	Intensity
0.00000	43.8
0.01667	43.8
0.03333	31.4
0.05000	34.7
0.06667	37.0
0.08333	37.9
0.10000	38.8
0.11667	40.1
0.13333	41.2
0.15000	41.5
0.16667	42.3
0.18333	42.6
0.20000	43.0
0.21667	43.1
0.23333	43.4
0.25000	43.4
0.26667	43.8
0.28333	43.8
0.30000	43.9
0.31667	44.0
0.33333	44.1
0.35000	44.0
0.36667	44.1
0.38333	44.3
0.40000	44.3
0.41667	44.3
0.43333	44.5
0.45000	44.4
0.46667	44.5
0.48333	44.7
0.50000	44.5
0.51667	44.5
0.53333	44.5
0.55000	44.7
0.56667	44.5
0.58333	44.5
0.60000	44.5
0.61667	44.5
0.63333	44.4
0.65000	44.5
0.66667	44.5
0.68333	44.4
0.70000	44.5
0.71667	44.5
0.73333	44.4
0.75000	44.3
0.76667	44.3
0.78333	44.1
0.80000	44.3
0.81667	44.1
0.83333	44.1
0.85000	44.1
0.86667	44.3
0.88333	44.1
0.90000	44.3
0.91667	44.1
0.93333	44.1
0.95000	44.1
0.96667	44.0
0.98333	44.4
1.00000	44.1
1.01667	44.1
1.03333	44.1
1.05000	44.0
1.06667	44.0
1.08333	44.1
1.10000	44.1
1.11667	44.0
1.13333	44.0
1.15000	44.0
1.16667	43.9
1.18333	44.1
1.20000	44.0
1.21667	44.0
1.23333	43.9
1.25000	44.1
1.26667	44.1
1.28333	44.1
1.30000	44.0
1.31667	44.1
1.33333	44.1
1.35000	43.9
1.36667	44.0
1.38333	44.0
1.40000	44.0
1.41667	44.1
1.43333	44.1
1.45000	44.0
1.46667	44.0
1.48333	44.1
1.50000	44.0
1.51667	44.0
1.53333	44.0
1.55000	44.0
1.56667	43.9
1.58333	44.0
1.60000	44.0
1.61667	44.0
1.63333	44.0
1.65000	44.1
1.66667	44.0
1.68333	44.1
1.70000	43.9
1.71667	44.0
1.73333	44.0
1.75000	44.1
1.76667	44.0
1.78333	43.9
1.80000	44.0
1.81667	44.0
1.83333	44.0
1.85000	44.1
1.86667	44.0
1.88333	43.9
1.90000	43.9
1.91667	44.0
1.93333	43.9
1.95000	43.9
1.96667	43.9
1.98333	44.0
2.00000	43.9
2.01667	44.0
2.03333	44.0
2.05000	43.9
2.06667	43.9
2.08333	43.9
2.10000	44.0
2.11667	43.9
2.13333	43.9
2.15000	44.1
2.16667	43.9
2.18333	44.0
2.20000	44.0
2.21667	43.9
2.23333	44.0
2.25000	43.9
2.26667	44.0
2.28333	43.9
2.30000	44.0
2.31667	43.9
2.33333	43.9
2.35000	43.9
2.36667	43.9
2.38333	44.1
2.40000	44.0
2.41667	43.9
2.43333	44.0
2.45000	43.8
2.46667	43.8
2.48333	44.0
2.50000	43.9
2.51667	43.9
2.53333	44.0
2.55000	44.0
2.56667	43.8
2.58333	44.0
2.60000	43.9
2.61667	44.0
2.63333	43.9
2.65000	44.0
2.66667	43.9
2.68333	43.8
2.70000	44.0
2.71667	44.0
2.73333	44.0
2.75000	43.9
2.76667	44.0
2.78333	43.8
2.80000	43.9
2.81667	43.9
2.83333	43.9
2.85000	43.9
2.86667	44.0
2.88333	43.8
2.90000	43.9
2.91667	43.8
2.93333	43.9
2.95000	43.6
2.96667	44.0
2.98333	43.9
3.00000	43.8
3.01667	43.9
3.03333	43.8
3.05000	43.8
3.06667	44.0
3.08333	44.0
3.10000	43.9
3.11667	43.9
3.13333	43.8
3.15000	43.8
3.16667	43.6
3.18333	43.8
3.20000	43.9
3.21667	43.8
3.23333	43.8
3.25000	43.9
3.26667	43.9
3.28333	43.8
3.30000	43.8
3.31667	44.0
3.33333	43.8
3.35000	43.8
3.36667	43.9
3.38333	43.8
3.40000	43.8
3.41667	43.8
3.43333	43.9
3.45000	43.9
3.46667	43.8
3.48333	43.9
3.50000	43.8
3.51667	43.8
3.53333	43.8
3.55000	43.8
3.56667	43.6
3.58333	43.9
3.60000	43.8
3.61667	43.6
3.63333	43.9
3.65000	43.9
3.66667	43.8
3.68333	43.9
3.70000	43.9
3.71667	43.6
3.73333	43.8
3.75000	43.8
3.76667	43.9
3.78333	43.9
3.80000	43.8
3.81667	43.9
3.83333	43.6
3.85000	43.8
3.86667	43.8
3.88333	43.8
3.90000	43.8
3.91667	43.8
3.93333	43.8
3.95000	43.8
3.96667	43.8
3.98333	43.9
4.00000	43.8
4.01667	43.9
4.03333	43.8
4.05000	43.9
4.06667	43.8
4.08333	43.9
4.10000	43.8
4.11667	43.8
4.13333	43.8
4.15000	43.8
4.16667	43.8
4.18333	43.8
4.20000	44.0
4.21667	43.8
4.23333	43.8
4.25000	43.8
4.26667	43.8
4.28333	43.8
4.30000	43.9
4.31667	43.9
4.33333	43.6
4.35000	43.8
4.36667	43.9
4.38333	43.9
4.40000	43.8
4.41667	43.9
4.43333	43.8
4.45000	43.6
4.46667	43.9
4.48333	43.8
4.50000	43.9
4.51667	43.8
4.53333	43.8
4.55000	43.9
4.56667	43.8
4.58333	43.9
4.60000	43.9
4.61667	43.9
4.63333	43.9
4.65000	43.8
4.66667	43.8
4.68333	43.8
4.70000	43.8
4.71667	43.9
4.73333	43.8
4.75000	43.9
4.76667	43.9
4.78333	43.9
4.80000	43.8
4.81667	43.6
4.83333	43.9
4.85000	43.9
4.86667	43.9
4.88333	43.9
4.90000	43.9
4.91667	43.9
4.93333	43.9
4.95000	43.8
4.96667	43.9
4.98333	43.9
5.00000	43.8
5.01667	43.8
5.03333	43.9
5.05000	43.9
5.06667	43.9
5.08333	43.9
5.10000	43.8
5.11667	43.9
5.13333	43.9
5.15000	43.9
5.16667	43.9
5.18333	43.9
5.20000	43.9
5.21667	43.8
5.23333	43.9
5.25000	43.8
5.26667	43.8
5.28333	43.9
5.30000	43.9
5.31667	44.0
5.33333	43.9
5.35000	43.9
5.36667	43.8
5.38333	43.9
5.40000	43.8
5.41667	43.9
5.43333	43.9
5.45000	43.8
5.46667	44.0
5.48333	43.9
5.50000	43.8
5.51667	43.9
5.53333	43.9
5.55000	43.8
5.56667	44.0
5.58333	43.9
5.60000	43.9
5.61667	43.9
5.63333	44.0
5.65000	43.9
5.66667	43.9
5.68333	43.9
5.70000	43.9
5.71667	43.8
5.73333	43.8
5.75000	44.0
5.76667	43.9
5.78333	43.9
5.80000	43.9
5.81667	43.9
5.83333	43.8
5.85000	43.9
5.86667	44.0
5.88333	43.9
5.90000	43.9
5.91667	44.0
5.93333	43.9
5.95000	43.9
5.96667	43.9
5.98333	43.9
6.00000	43.9
6.01667	43.9
6.03333	43.9
6.05000	43.9
6.06667	43.9
6.08333	43.9
6.10000	43.9
6.11667	43.8
6.13333	43.9
6.15000	43.9
6.16667	43.9
6.18333	43.9
6.20000	43.9
6.21667	43.8
6.23333	43.9
6.25000	43.9
6.26667	43.8
6.28333	43.9
6.30000	43.9
6.31667	43.8
6.33333	43.8
6.35000	43.9
6.36667	43.9
6.38333	44.0
6.40000	43.9
6.41667	44.1
6.43333	43.9
6.45000	43.9
6.46667	43.9
6.48333	44.0
6.50000	43.8
6.51667	44.0
6.53333	44.0
6.55000	43.9
6.56667	44.0
6.58333	44.0
6.60000	43.9
6.61667	43.9
6.63333	43.9
6.65000	43.9
6.66667	43.9
6.68333	44.0
6.70000	44.0
6.71667	44.0
6.73333	44.0
6.75000	43.9
6.76667	43.9
6.78333	44.1
6.80000	44.1
6.81667	44.1
6.83333	43.9
6.85000	44.0
6.86667	44.0
6.88333	43.9
6.90000	43.9
6.91667	44.0
6.93333	44.0
6.95000	44.0
6.96667	44.0
6.98333	44.0
7.00000	44.0
7.01667	43.9
7.03333	44.0
7.05000	43.9
7.06667	44.0
7.08333	44.0
7.10000	44.0
7.11667	44.0
7.13333	44.1
7.15000	44.0
7.16667	44.0
7.18333	43.9
7.20000	44.0
7.21667	44.0
7.23333	44.1
7.25000	44.1
7.26667	44.0
7.28333	44.1
7.30000	44.1
7.31667	44.0
7.33333	44.0
7.35000	44.1
7.36667	44.0
7.38333	44.0
7.40000	44.0
7.41667	44.0
7.43333	44.0
7.45000	44.0
7.46667	44.1
7.48333	44.1
7.50000	44.0
7.51667	44.0
7.53333	44.1
7.55000	44.1
7.56667	44.1
7.58333	44.1
7.60000	44.0
7.61667	44.0
7.63333	44.1
7.65000	44.3
7.66667	44.1
7.68333	44.1
7.70000	44.0
7.71667	44.1
7.73333	44.0
7.75000	44.0
7.76667	44.1
7.78333	44.1
7.80000	44.0
7.81667	44.0
7.83333	44.3
7.85000	44.0
7.86667	44.1
7.88333	44.0
7.90000	44.1
7.91667	44.3
7.93333	44.3
7.95000	44.1
7.96667	44.1
7.98333	44.1
8.00000	44.0
8.01667	44.1
8.03333	44.0
8.05000	44.3
8.06667	44.1
8.08333	44.3
8.10000	44.1
8.11667	44.3
8.13333	44.1
8.15000	44.1
8.16667	44.3
8.18333	44.3
8.20000	44.1
8.21667	44.1
8.23333	44.1
8.25000	44.1
8.26667	44.1
8.28333	44.1
8.30000	44.1
8.31667	44.1
8.33333	44.1
8.35000	44.1
8.36667	44.3
8.38333	44.0
8.40000	44.3
8.41667	44.1
8.43333	44.1
8.45000	44.1
8.46667	44.1
8.48333	44.3
8.50000	44.3
8.51667	44.3
8.53333	44.1
8.55000	44.1
8.56667	44.1
8.58333	44.1
8.60000	44.3
8.61667	44.3
8.63333	44.1
8.65000	44.1
8.66667	44.3
8.68333	44.1
8.70000	44.1
8.71667	44.0
8.73333	44.1
8.75000	44.3
8.76667	44.1
8.78333	44.1
8.80000	44.3
8.81667	44.1
8.83333	44.1
8.85000	44.1
8.86667	44.1
8.88333	44.1
8.90000	44.1
8.91667	44.3
8.93333	44.0
8.95000	44.1
8.96667	44.1
8.98333	44.1
9.00000	44.1
9.01667	44.3
9.03333	44.0
9.05000	44.1
9.06667	44.1
9.08333	44.1
9.10000	44.1
9.11667	44.1
9.13333	44.1
9.15000	44.0
9.16667	44.1
9.18333	44.1
9.20000	44.3
9.21667	44.0
9.23333	44.3
9.25000	44.1
9.26667	44.1
9.28333	44.1
9.30000	44.1
9.31667	44.1
9.33333	44.3
9.35000	44.1
9.36667	44.1
9.38333	44.3
9.40000	44.3
9.41667	44.3
9.43333	44.3
9.45000	44.1
9.46667	44.1
9.48333	44.3
9.50000	44.1
9.51667	44.3
9.53333	44.1
9.55000	44.1
9.56667	44.1
9.58333	44.3
9.60000	44.1
9.61667	44.1
9.63333	44.3
9.65000	44.4
9.66667	44.3
9.68333	44.3
9.70000	44.1
9.71667	44.1
9.73333	44.3
9.75000	44.4
9.76667	44.0
9.78333	44.1
9.80000	44.1
9.81667	44.3
9.83333	44.3
9.85000	44.3
9.86667	44.1
9.88333	44.3
9.90000	44.1
9.91667	44.1
9.93333	44.1
9.95000	44.3
9.96667	44.3
9.98333	44.1
10.00000	44.3
10.01667	44.1
10.03333	44.1
10.05000	44.1
10.06667	44.3
10.08333	44.1
10.10000	44.3
10.11667	44.1
10.13333	44.4
10.15000	44.1
10.16667	44.3
10.18333	44.4
10.20000	44.1
10.21667	44.3
10.23333	44.3
10.25000	44.4
10.26667	44.1
10.28333	44.3
10.30000	44.3
10.31667	44.3
10.33333	44.3
10.35000	44.3
10.36667	44.1
10.38333	44.3
10.40000	44.3
10.41667	44.3
10.43333	44.3
10.45000	44.3
10.46667	44.4
10.48333	44.3
10.50000	44.4
10.51667	44.1
10.53333	44.3
10.55000	44.3
10.56667	44.3
10.58333	44.4
10.60000	44.3
10.61667	44.3
10.63333	44.5
10.65000	44.3
10.66667	44.4
10.68333	44.3
10.70000	44.3
10.71667	44.4
10.73333	44.4
10.75000	44.3
10.76667	44.3
10.78333	44.4
10.80000	44.4
10.81667	44.3
10.83333	44.3
10.85000	44.3
10.86667	44.3
10.88333	44.1
10.90000	44.1
10.91667	44.4
10.93333	44.4
10.95000	44.3
10.96667	44.3
10.98333	44.4
11.00000	44.4

[LC Status Trace(UV Cell Temp.)]
Interval(msec)	1000
# of Points	661
Start Time(min)	0.000
End Time(min)	11.000
Intensity Units	C
Intensity Multiplier	1
R.Time (min)	Intensity
0.00000	40.00
0.01667	40.00
0.03333	40.00
0.05000	39.99
0.06667	40.00
0.08333	40.00
0.10000	40.00
0.11667	39.98
0.13333	39.99
0.15000	39.99
0.16667	39.99
0.18333	40.00
0.20000	39.98
0.21667	39.99
0.23333	39.99
0.25000	39.99
0.26667	40.00
0.28333	39.99
0.30000	40.00
0.31667	40.02
0.33333	40.00
0.35000	40.00
0.36667	40.00
0.38333	40.00
0.40000	40.00
0.41667	40.03
0.43333	40.02
0.45000	40.00
0.46667	40.00
0.48333	40.03
0.50000	40.00
0.51667	39.99
0.53333	40.00
0.55000	40.00
0.56667	40.00
0.58333	40.00
0.60000	40.00
0.61667	40.00
0.63333	40.00
0.65000	40.00
0.66667	39.99
0.68333	40.00
0.70000	40.00
0.71667	40.00
0.73333	39.99
0.75000	40.00
0.76667	39.99
0.78333	39.99
0.80000	39.99
0.81667	40.00
0.83333	39.99
0.85000	40.00
0.86667	39.99
0.88333	40.00
0.90000	40.00
0.91667	40.00
0.93333	40.00
0.95000	39.99
0.96667	40.00
0.98333	40.00
1.00000	40.00
1.01667	40.02
1.03333	40.00
1.05000	40.00
1.06667	40.00
1.08333	40.00
1.10000	39.99
1.11667	40.00
1.13333	39.99
1.15000	40.00
1.16667	40.00
1.18333	40.00
1.20000	40.00
1.21667	40.00
1.23333	40.00
1.25000	40.00
1.26667	40.00
1.28333	40.00
1.30000	40.00
1.31667	40.00
1.33333	40.00
1.35000	40.00
1.36667	40.00
1.38333	40.00
1.40000	40.00
1.41667	40.00
1.43333	39.99
1.45000	40.00
1.46667	39.99
1.48333	39.99
1.50000	39.99
1.51667	40.00
1.53333	40.00
1.55000	40.00
1.56667	40.00
1.58333	40.00
1.60000	40.02
1.61667	40.03
1.63333	40.00
1.65000	39.99
1.66667	40.00
1.68333	40.00
1.70000	40.00
1.71667	40.00
1.73333	39.99
1.75000	40.00
1.76667	40.00
1.78333	40.00
1.80000	40.00
1.81667	40.00
1.83333	39.99
1.85000	40.00
1.86667	40.00
1.88333	39.99
1.90000	40.00
1.91667	40.00
1.93333	39.96
1.95000	39.93
1.96667	39.97
1.98333	39.99
2.00000	40.00
2.01667	40.00
2.03333	40.00
2.05000	40.00
2.06667	40.03
2.08333	40.00
2.10000	40.00
2.11667	40.02
2.13333	40.00
2.15000	40.00
2.16667	39.99
2.18333	40.00
2.20000	40.00
2.21667	40.00
2.23333	40.00
2.25000	40.00
2.26667	40.00
2.28333	40.00
2.30000	40.02
2.31667	40.00
2.33333	40.00
2.35000	40.00
2.36667	40.00
2.38333	40.00
2.40000	39.99
2.41667	40.00
2.43333	40.00
2.45000	40.00
2.46667	40.02
2.48333	39.99
2.50000	39.99
2.51667	40.02
2.53333	40.00
2.55000	40.00
2.56667	40.00
2.58333	40.00
2.60000	40.00
2.61667	40.00
2.63333	40.00
2.65000	40.00
2.66667	39.99
2.68333	40.02
2.70000	40.02
2.71667	40.00
2.73333	40.00
2.75000	40.00
2.76667	39.99
2.78333	39.96
2.80000	39.93
2.81667	39.93
2.83333	39.96
2.85000	39.98
2.86667	39.99
2.88333	39.98
2.90000	39.99
2.91667	39.99
2.93333	39.99
2.95000	40.00
2.96667	40.00
2.98333	40.03
3.00000	40.00
3.01667	40.00
3.03333	39.99
3.05000	40.00
3.06667	40.00
3.08333	40.05
3.10000	40.00
3.11667	39.99
3.13333	39.99
3.15000	39.97
3.16667	39.95
3.18333	39.97
3.20000	39.99
3.21667	40.02
3.23333	40.00
3.25000	40.00
3.26667	40.00
3.28333	40.00
3.30000	40.00
3.31667	39.99
3.33333	39.99
3.35000	39.99
3.36667	39.99
3.38333	39.96
3.40000	39.99
3.41667	40.00
3.43333	40.00
3.45000	40.00
3.46667	39.99
3.48333	39.99
3.50000	40.02
3.51667	40.00
3.53333	40.00
3.55000	40.00
3.56667	40.00
3.58333	40.02
3.60000	40.00
3.61667	40.00
3.63333	40.00
3.65000	40.00
3.66667	40.03
3.68333	40.05
3.70000	40.00
3.71667	40.00
3.73333	40.00
3.75000	40.00
3.76667	39.99
3.78333	40.00
3.80000	40.00
3.81667	40.00
3.83333	40.00
3.85000	40.00
3.86667	39.99
3.88333	40.00
3.90000	40.00
3.91667	39.97
3.93333	39.93
3.95000	39.93
3.96667	39.95
3.98333	39.97
4.00000	39.99
4.01667	40.00
4.03333	40.00
4.05000	40.00
4.06667	40.00
4.08333	40.00
4.10000	40.00
4.11667	39.99
4.13333	40.00
4.15000	40.00
4.16667	40.00
4.18333	39.98
4.20000	39.97
4.21667	39.93
4.23333	39.96
4.25000	39.98
4.26667	39.99
4.28333	39.99
4.30000	40.00
4.31667	40.00
4.33333	40.02
4.35000	40.00
4.36667	40.00
4.38333	40.00
4.40000	40.00
4.41667	40.00
4.43333	40.00
4.45000	40.00
4.46667	39.99
4.48333	40.00
4.50000	40.08
4.51667	40.00
4.53333	40.00
4.55000	40.02
4.56667	40.03
4.58333	40.03
4.60000	40.03
4.61667	40.00
4.63333	39.99
4.65000	40.00
4.66667	39.99
4.68333	39.99
4.70000	39.99
4.71667	40.00
4.73333	40.00
4.75000	40.00
4.76667	40.00
4.78333	40.00
4.80000	40.00
4.81667	40.03
4.83333	40.00
4.85000	40.00
4.86667	40.00
4.88333	40.00
4.90000	40.00
4.91667	40.00
4.93333	40.00
4.95000	40.00
4.96667	40.00
4.98333	40.00
5.00000	40.00
5.01667	40.00
5.03333	40.00
5.05000	40.00
5.06667	40.00
5.08333	40.00
5.10000	40.00
5.11667	39.97
5.13333	39.97
5.15000	39.99
5.16667	40.00
5.18333	40.00
5.20000	40.00
5.21667	40.00
5.23333	40.00
5.25000	40.00
5.26667	39.93
5.28333	39.99
5.30000	40.00
5.31667	40.00
5.33333	40.00
5.35000	40.00
5.36667	39.98
5.38333	39.99
5.40000	40.00
5.41667	40.00
5.43333	39.99
5.45000	40.00
5.46667	40.00
5.48333	39.99
5.50000	39.99
5.51667	39.99
5.53333	40.00
5.55000	40.00
5.56667	39.95
5.58333	39.98
5.60000	40.03
5.61667	40.02
5.63333	40.00
5.65000	40.00
5.66667	39.97
5.68333	40.00
5.70000	40.00
5.71667	40.00
5.73333	40.00
5.75000	40.00
5.76667	39.99
5.78333	39.95
5.80000	40.00
5.81667	40.00
5.83333	40.00
5.85000	40.00
5.86667	40.00
5.88333	40.00
5.90000	40.00
5.91667	40.00
5.93333	40.00
5.95000	39.98
5.96667	39.98
5.98333	40.00
6.00000	40.00
6.01667	40.00
6.03333	40.06
6.05000	40.00
6.06667	40.00
6.08333	40.00
6.10000	40.00
6.11667	40.00
6.13333	40.00
6.15000	39.99
6.16667	39.97
6.18333	39.96
6.20000	39.98
6.21667	40.00
6.23333	40.00
6.25000	40.00
6.26667	39.99
6.28333	40.00
6.30000	40.00
6.31667	40.00
6.33333	40.00
6.35000	40.00
6.36667	40.00
6.38333	40.00
6.40000	40.02
6.41667	40.05
6.43333	40.03
6.45000	40.00
6.46667	40.00
6.48333	40.02
6.50000	40.02
6.51667	39.99
6.53333	40.00
6.55000	39.99
6.56667	40.00
6.58333	40.00
6.60000	39.99
6.61667	40.00
6.63333	40.00
6.65000	39.99
6.66667	39.98
6.68333	39.98
6.70000	40.00
6.71667	40.00
6.73333	40.00
6.75000	40.00
6.76667	40.00
6.78333	40.00
6.80000	40.00
6.81667	40.00
6.83333	40.00
6.85000	40.00
6.86667	40.00
6.88333	40.00
6.90000	40.00
6.91667	39.98
6.93333	39.95
6.95000	40.00
6.96667	40.00
6.98333	40.00
7.00000	39.99
7.01667	39.99
7.03333	40.00
7.05000	39.99
7.06667	39.93
7.08333	40.00
7.10000	40.00
7.11667	40.00
7.13333	39.99
7.15000	40.00
7.16667	40.00
7.18333	40.00
7.20000	39.98
7.21667	39.96
7.23333	39.99
7.25000	40.00
7.26667	40.00
7.28333	40.00
7.30000	40.00
7.31667	40.00
7.33333	40.00
7.35000	40.00
7.36667	39.98
7.38333	39.97
7.40000	39.99
7.41667	39.99
7.43333	40.00
7.45000	40.00
7.46667	40.00
7.48333	40.00
7.50000	40.00
7.51667	40.00
7.53333	40.00
7.55000	40.00
7.56667	40.00
7.58333	40.00
7.60000	39.99
7.61667	39.99
7.63333	40.00
7.65000	40.00
7.66667	40.11
7.68333	40.07
7.70000	40.03
7.71667	39.99
7.73333	39.99
7.75000	39.99
7.76667	40.00
7.78333	40.00
7.80000	40.02
7.81667	40.00
7.83333	40.00
7.85000	40.00
7.86667	40.00
7.88333	40.00
7.90000	40.00
7.91667	40.02
7.93333	40.02
7.95000	40.00
7.96667	40.00
7.98333	40.00
8.00000	40.00
8.01667	40.02
8.03333	40.02
8.05000	40.02
8.06667	40.00
8.08333	40.00
8.10000	40.00
8.11667	40.00
8.13333	40.00
8.15000	40.00
8.16667	40.00
8.18333	40.02
8.20000	40.00
8.21667	40.03
8.23333	40.00
8.25000	40.00
8.26667	40.00
8.28333	40.00
8.30000	40.00
8.31667	39.98
8.33333	39.96
8.35000	39.98
8.36667	39.98
8.38333	39.99
8.40000	39.99
8.41667	40.00
8.43333	40.03
8.45000	39.99
8.46667	39.99
8.48333	40.00
8.50000	40.00
8.51667	40.02
8.53333	40.00
8.55000	40.00
8.56667	40.00
8.58333	40.00
8.60000	40.00
8.61667	40.00
8.63333	39.99
8.65000	39.95
8.66667	39.93
8.68333	39.97
8.70000	40.02
8.71667	40.00
8.73333	40.00
8.75000	40.00
8.76667	39.99
8.78333	40.00
8.80000	40.00
8.81667	40.00
8.83333	40.02
8.85000	39.99
8.86667	40.00
8.88333	40.00
8.90000	40.00
8.91667	40.00
8.93333	40.00
8.95000	40.00
8.96667	39.99
8.98333	39.93
9.00000	39.97
9.01667	39.99
9.03333	39.95
9.05000	39.95
9.06667	39.97
9.08333	40.00
9.10000	40.00
9.11667	39.99
9.13333	40.00
9.15000	40.00
9.16667	40.05
9.18333	40.00
9.20000	40.00
9.21667	40.00
9.23333	40.00
9.25000	39.99
9.26667	39.99
9.28333	39.99
9.30000	39.97
9.31667	40.00
9.33333	40.00
9.35000	40.00
9.36667	39.99
9.38333	39.99
9.40000	40.00
9.41667	40.00
9.43333	40.00
9.45000	40.02
9.46667	39.99
9.48333	39.98
9.50000	39.98
9.51667	39.98
9.53333	40.00
9.55000	40.00
9.56667	40.00
9.58333	40.00
9.60000	40.00
9.61667	40.00
9.63333	40.00
9.65000	40.00
9.66667	40.00
9.68333	39.99
9.70000	40.00
9.71667	40.00
9.73333	40.00
9.75000	40.00
9.76667	40.03
9.78333	40.00
9.80000	40.00
9.81667	39.96
9.83333	39.99
9.85000	40.05
9.86667	40.02
9.88333	40.00
9.90000	40.02
9.91667	40.00
9.93333	39.96
9.95000	39.99
9.96667	40.00
9.98333	39.99
10.00000	40.00
10.01667	40.00
10.03333	39.99
10.05000	39.99
10.06667	39.99
10.08333	39.99
10.10000	39.99
10.11667	40.00
10.13333	40.00
10.15000	39.99
10.16667	40.00
10.18333	39.95
10.20000	39.93
10.21667	39.98
10.23333	40.00
10.25000	40.00
10.26667	40.00
10.28333	39.98
10.30000	40.00
10.31667	40.00
10.33333	40.00
10.35000	40.00
10.36667	40.00
10.38333	39.99
10.40000	40.00
10.41667	40.00
10.43333	40.00
10.45000	39.95
10.46667	39.97
10.48333	39.93
10.50000	39.93
10.51667	39.98
10.53333	39.99
10.55000	39.99
10.56667	40.00
10.58333	40.00
10.60000	40.00
10.61667	40.00
10.63333	40.00
10.65000	40.00
10.66667	40.00
10.68333	40.00
10.70000	40.05
10.71667	40.00
10.73333	39.99
10.75000	39.99
10.76667	39.97
10.78333	39.98
10.80000	39.99
10.81667	39.99
10.83333	40.00
10.85000	40.00
10.86667	40.00
10.88333	40.00
10.90000	39.99
10.91667	39.99
10.93333	39.98
10.95000	39.93
10.96667	39.95
10.98333	39.93
11.00000	39.93

[LC Status Trace(RF B Cell Temp.)]
Interval(msec)	1000
# of Points	661
Start Time(min)	0.000
End Time(min)	11.000
Intensity Units	C
Intensity Multiplier	1
R.Time (min)	Intensity
0.00000	30.07
0.01667	30.07
0.03333	30.07
0.05000	30.07
0.06667	30.07
0.08333	30.07
0.10000	30.07
0.11667	30.07
0.13333	30.07
0.15000	30.07
0.16667	30.07
0.18333	30.07
0.20000	30.07
0.21667	30.07
0.23333	30.07
0.25000	30.07
0.26667	30.07
0.28333	30.07
0.30000	30.07
0.31667	30.07
0.33333	30.07
0.35000	30.07
0.36667	30.07
0.38333	30.07
0.40000	30.07
0.41667	30.07
0.43333	30.07
0.45000	30.06
0.46667	30.06
0.48333	30.06
0.50000	30.06
0.51667	30.06
0.53333	30.06
0.55000	30.06
0.56667	30.06
0.58333	30.06
0.60000	30.06
0.61667	30.06
0.63333	30.06
0.65000	30.06
0.66667	30.06
0.68333	30.06
0.70000	30.06
0.71667	30.06
0.73333	30.06
0.75000	30.06
0.76667	30.06
0.78333	30.06
0.80000	30.06
0.81667	30.06
0.83333	30.06
0.85000	30.06
0.86667	30.06
0.88333	30.06
0.90000	30.06
0.91667	30.06
0.93333	30.06
0.95000	30.06
0.96667	30.06
0.98333	30.06
1.00000	30.06
1.01667	30.06
1.03333	30.06
1.05000	30.06
1.06667	30.06
1.08333	30.06
1.10000	30.06
1.11667	30.06
1.13333	30.06
1.15000	30.06
1.16667	30.07
1.18333	30.07
1.20000	30.07
1.21667	30.07
1.23333	30.07
1.25000	30.07
1.26667	30.07
1.28333	30.07
1.30000	30.07
1.31667	30.07
1.33333	30.07
1.35000	30.07
1.36667	30.07
1.38333	30.07
1.40000	30.07
1.41667	30.07
1.43333	30.07
1.45000	30.07
1.46667	30.07
1.48333	30.07
1.50000	30.07
1.51667	30.07
1.53333	30.07
1.55000	30.07
1.56667	30.07
1.58333	30.07
1.60000	30.07
1.61667	30.07
1.63333	30.07
1.65000	30.07
1.66667	30.07
1.68333	30.07
1.70000	30.07
1.71667	30.07
1.73333	30.07
1.75000	30.07
1.76667	30.07
1.78333	30.07
1.80000	30.07
1.81667	30.07
1.83333	30.07
1.85000	30.07
1.86667	30.07
1.88333	30.07
1.90000	30.07
1.91667	30.07
1.93333	30.07
1.95000	30.07
1.96667	30.07
1.98333	30.07
2.00000	30.07
2.01667	30.07
2.03333	30.07
2.05000	30.07
2.06667	30.07
2.08333	30.07
2.10000	30.07
2.11667	30.07
2.13333	30.07
2.15000	30.07
2.16667	30.07
2.18333	30.07
2.20000	30.07
2.21667	30.07
2.23333	30.07
2.25000	30.07
2.26667	30.07
2.28333	30.07
2.30000	30.07
2.31667	30.07
2.33333	30.07
2.35000	30.07
2.36667	30.07
2.38333	30.07
2.40000	30.07
2.41667	30.07
2.43333	30.07
2.45000	30.07
2.46667	30.07
2.48333	30.07
2.50000	30.07
2.51667	30.07
2.53333	30.07
2.55000	30.07
2.56667	30.07
2.58333	30.07
2.60000	30.07
2.61667	30.07
2.63333	30.07
2.65000	30.07
2.66667	30.07
2.68333	30.07
2.70000	30.07
2.71667	30.07
2.73333	30.06
2.75000	30.07
2.76667	30.07
2.78333	30.06
2.80000	30.06
2.81667	30.06
2.83333	30.06
2.85000	30.06
2.86667	30.06
2.88333	30.06
2.90000	30.06
2.91667	30.06
2.93333	30.06
2.95000	30.06
2.96667	30.06
2.98333	30.06
3.00000	30.06
3.01667	30.06
3.03333	30.06
3.05000	30.06
3.06667	30.06
3.08333	30.06
3.10000	30.06
3.11667	30.06
3.13333	30.06
3.15000	30.06
3.16667	30.06
3.18333	30.07
3.20000	30.07
3.21667	30.07
3.23333	30.07
3.25000	30.07
3.26667	30.07
3.28333	30.07
3.30000	30.07
3.31667	30.07
3.33333	30.07
3.35000	30.07
3.36667	30.07
3.38333	30.07
3.40000	30.07
3.41667	30.07
3.43333	30.07
3.45000	30.07
3.46667	30.07
3.48333	30.07
3.50000	30.07
3.51667	30.07
3.53333	30.07
3.55000	30.07
3.56667	30.07
3.58333	30.07
3.60000	30.07
3.61667	30.07
3.63333	30.07
3.65000	30.07
3.66667	30.07
3.68333	30.07
3.70000	30.07
3.71667	30.07
3.73333	30.07
3.75000	30.07
3.76667	30.07
3.78333	30.07
3.80000	30.07
3.81667	30.07
3.83333	30.07
3.85000	30.07
3.86667	30.07
3.88333	30.07
3.90000	30.07
3.91667	30.07
3.93333	30.07
3.95000	30.07
3.96667	30.07
3.98333	30.07
4.00000	30.07
4.01667	30.07
4.03333	30.07
4.05000	30.07
4.06667	30.07
4.08333	30.07
4.10000	30.07
4.11667	30.07
4.13333	30.07
4.15000	30.07
4.16667	30.07
4.18333	30.07
4.20000	30.07
4.21667	30.07
4.23333	30.07
4.25000	30.07
4.26667	30.07
4.28333	30.07
4.30000	30.07
4.31667	30.07
4.33333	30.07
4.35000	30.07
4.36667	30.07
4.38333	30.07
4.40000	30.06
4.41667	30.06
4.43333	30.06
4.45000	30.06
4.46667	30.06
4.48333	30.06
4.50000	30.06
4.51667	30.06
4.53333	30.06
4.55000	30.06
4.56667	30.06
4.58333	30.06
4.60000	30.06
4.61667	30.06
4.63333	30.06
4.65000	30.06
4.66667	30.06
4.68333	30.06
4.70000	30.06
4.71667	30.05
4.73333	30.05
4.75000	30.05
4.76667	30.05
4.78333	30.05
4.80000	30.05
4.81667	30.05
4.83333	30.05
4.85000	30.05
4.86667	30.05
4.88333	30.05
4.90000	30.05
4.91667	30.05
4.93333	30.05
4.95000	30.05
4.96667	30.05
4.98333	30.05
5.00000	30.04
5.01667	30.04
5.03333	30.04
5.05000	30.04
5.06667	30.04
5.08333	30.04
5.10000	30.04
5.11667	30.04
5.13333	30.04
5.15000	30.04
5.16667	30.04
5.18333	30.04
5.20000	30.04
5.21667	30.04
5.23333	30.04
5.25000	30.03
5.26667	30.03
5.28333	30.03
5.30000	30.03
5.31667	30.03
5.33333	30.03
5.35000	30.03
5.36667	30.03
5.38333	30.03
5.40000	30.03
5.41667	30.03
5.43333	30.03
5.45000	30.03
5.46667	30.03
5.48333	30.03
5.50000	30.03
5.51667	30.03
5.53333	30.03
5.55000	30.03
5.56667	30.03
5.58333	30.03
5.60000	30.03
5.61667	30.03
5.63333	30.03
5.65000	30.03
5.66667	30.03
5.68333	30.03
5.70000	30.03
5.71667	30.03
5.73333	30.03
5.75000	30.03
5.76667	30.03
5.78333	30.03
5.80000	30.02
5.81667	30.02
5.83333	30.02
5.85000	30.02
5.86667	30.02
5.88333	30.02
5.90000	30.02
5.91667	30.02
5.93333	30.02
5.95000	30.02
5.96667	30.02
5.98333	30.02
6.00000	30.02
6.01667	30.02
6.03333	30.02
6.05000	30.02
6.06667	30.02
6.08333	30.02
6.10000	30.02
6.11667	30.02
6.13333	30.02
6.15000	30.02
6.16667	30.02
6.18333	30.03
6.20000	30.03
6.21667	30.03
6.23333	30.03
6.25000	30.03
6.26667	30.03
6.28333	30.03
6.30000	30.03
6.31667	30.03
6.33333	30.03
6.35000	30.03
6.36667	30.03
6.38333	30.03
6.40000	30.03
6.41667	30.03
6.43333	30.03
6.45000	30.03
6.46667	30.03
6.48333	30.03
6.50000	30.03
6.51667	30.03
6.53333	30.03
6.55000	30.03
6.56667	30.03
6.58333	30.03
6.60000	30.03
6.61667	30.03
6.63333	30.03
6.65000	30.03
6.66667	30.03
6.68333	30.03
6.70000	30.03
6.71667	30.03
6.73333	30.03
6.75000	30.03
6.76667	30.03
6.78333	30.03
6.80000	30.03
6.81667	30.03
6.83333	30.03
6.85000	30.03
6.86667	30.03
6.88333	30.03
6.90000	30.03
6.91667	30.03
6.93333	30.03
6.95000	30.03
6.96667	30.03
6.98333	30.03
7.00000	30.03
7.01667	30.03
7.03333	30.03
7.05000	30.03
7.06667	30.03
7.08333	30.03
7.10000	30.03
7.11667	30.03
7.13333	30.03
7.15000	30.03
7.16667	30.03
7.18333	30.03
7.20000	30.03
7.21667	30.03
7.23333	30.03
7.25000	30.03
7.26667	30.03
7.28333	30.03
7.30000	30.03
7.31667	30.03
7.33333	30.03
7.35000	30.03
7.36667	30.03
7.38333	30.03
7.40000	30.03
7.41667	30.03
7.43333	30.03
7.45000	30.03
7.46667	30.03
7.48333	30.03
7.50000	30.03
7.51667	30.03
7.53333	30.03
7.55000	30.03
7.56667	30.04
7.58333	30.04
7.60000	30.04
7.61667	30.04
7.63333	30.04
7.65000	30.04
7.66667	30.04
7.68333	30.04
7.70000	30.04
7.71667	30.04
7.73333	30.04
7.75000	30.04
7.76667	30.04
7.78333	30.04
7.80000	30.04
7.81667	30.04
7.83333	30.04
7.85000	30.04
7.86667	30.04
7.88333	30.04
7.90000	30.04
7.91667	30.04
7.93333	30.04
7.95000	30.04
7.96667	30.04
7.98333	30.04
8.00000	30.04
8.01667	30.04
8.03333	30.04
8.05000	30.04
8.06667	30.04
8.08333	30.04
8.10000	30.04
8.11667	30.04
8.13333	30.04
8.15000	30.04
8.16667	30.04
8.18333	30.04
8.20000	30.04
8.21667	30.04
8.23333	30.04
8.25000	30.04
8.26667	30.04
8.28333	30.04
8.30000	30.04
8.31667	30.04
8.33333	30.04
8.35000	30.04
8.36667	30.04
8.38333	30.04
8.40000	30.04
8.41667	30.04
8.43333	30.04
8.45000	30.04
8.46667	30.04
8.48333	30.04
8.50000	30.04
8.51667	30.04
8.53333	30.04
8.55000	30.04
8.56667	30.04
8.58333	30.04
8.60000	30.04
8.61667	30.04
8.63333	30.04
8.65000	30.04
8.66667	30.04
8.68333	30.04
8.70000	30.04
8.71667	30.04
8.73333	30.04
8.75000	30.04
8.76667	30.04
8.78333	30.04
8.80000	30.04
8.81667	30.04
8.83333	30.04
8.85000	30.04
8.86667	30.04
8.88333	30.04
8.90000	30.04
8.91667	30.04
8.93333	30.04
8.95000	30.04
8.96667	30.04
8.98333	30.04
9.00000	30.04
9.01667	30.04
9.03333	30.04
9.05000	30.04
9.06667	30.04
9.08333	30.04
9.10000	30.04
9.11667	30.04
9.13333	30.04
9.15000	30.04
9.16667	30.04
9.18333	30.04
9.20000	30.04
9.21667	30.04
9.23333	30.04
9.25000	30.04
9.26667	30.04
9.28333	30.04
9.30000	30.04
9.31667	30.04
9.33333	30.04
9.35000	30.04
9.36667	30.04
9.38333	30.04
9.40000	30.04
9.41667	30.04
9.43333	30.04
9.45000	30.04
9.46667	30.04
9.48333	30.04
9.50000	30.04
9.51667	30.04
9.53333	30.04
9.55000	30.04
9.56667	30.04
9.58333	30.04
9.60000	30.04
9.61667	30.04
9.63333	30.04
9.65000	30.04
9.66667	30.04
9.68333	30.04
9.70000	30.04
9.71667	30.04
9.73333	30.04
9.75000	30.04
9.76667	30.04
9.78333	30.04
9.80000	30.04
9.81667	30.04
9.83333	30.04
9.85000	30.04
9.86667	30.04
9.88333	30.04
9.90000	30.04
9.91667	30.04
9.93333	30.04
9.95000	30.04
9.96667	30.04
9.98333	30.04
10.00000	30.04
10.01667	30.04
10.03333	30.04
10.05000	30.04
10.06667	30.04
10.08333	30.04
10.10000	30.04
10.11667	30.04
10.13333	30.04
10.15000	30.04
10.16667	30.04
10.18333	30.04
10.20000	30.04
10.21667	30.04
10.23333	30.04
10.25000	30.04
10.26667	30.04
10.28333	30.04
10.30000	30.04
10.31667	30.04
10.33333	30.04
10.35000	30.04
10.36667	30.04
10.38333	30.04
10.40000	30.04
10.41667	30.04
10.43333	30.04
10.45000	30.04
10.46667	30.04
10.48333	30.04
10.50000	30.04
10.51667	30.04
10.53333	30.04
10.55000	30.04
10.56667	30.04
10.58333	30.04
10.60000	30.04
10.61667	30.04
10.63333	30.04
10.65000	30.04
10.66667	30.04
10.68333	30.04
10.70000	30.04
10.71667	30.04
10.73333	30.04
10.75000	30.04
10.76667	30.04
10.78333	30.04
10.80000	30.04
10.81667	30.04
10.83333	30.04
10.85000	30.04
10.86667	30.04
10.88333	30.04
10.90000	30.04
10.91667	30.04
10.93333	30.04
10.95000	30.04
10.96667	30.04
10.98333	30.04
11.00000	30.04

[Fraction Collection Report]
# of Fractions	0

